time_s,voltage_v
2.093076705932617188e-03,2.509622276976379851e+00
4.001855850219726562e-03,2.500519454541141329e+00
5.895137786865234375e-03,2.490752040237431686e+00
8.037090301513671875e-03,2.489961086506973231e+00
9.993791580200195312e-03,2.467026408556271644e+00
1.197576522827148438e-02,2.472550567692585854e+00
1.405787467956542969e-02,2.475143966095920245e+00
1.597237586975097656e-02,2.476918992628931004e+00
1.798415184020996094e-02,2.458172137519376133e+00
1.994037628173828125e-02,2.458130414263059560e+00
2.192878723144531250e-02,2.461245353370351108e+00
2.392816543579101562e-02,2.463493044792776754e+00
2.594351768493652344e-02,2.461272771510216284e+00
2.804350852966308594e-02,2.463559802002883270e+00
2.996993064880371094e-02,2.448028021815779276e+00
3.202509880065917969e-02,2.446354323190965907e+00
3.392720222473144531e-02,2.436880759821028697e+00
3.599691390991210938e-02,2.439710192645811127e+00
3.798341751098632812e-02,2.426929167143007327e+00
4.001259803771972656e-02,2.427106192959093356e+00
4.189729690551757812e-02,2.416641404228377699e+00
4.402899742126464844e-02,2.422976186630271478e+00
4.593563079833984375e-02,2.373416110684408054e+00
4.794549942016601562e-02,2.395168828388313020e+00
4.992771148681640625e-02,2.407414604117227075e+00
5.192875862121582031e-02,2.407589841793756680e+00
5.392861366271972656e-02,2.405153799671387649e+00
5.594420433044433594e-02,2.409073401579070239e+00
5.799293518066406250e-02,2.410108734382240048e+00
5.998349189758300781e-02,2.412491132317916342e+00
6.203699111938476562e-02,2.414992143510835465e+00
6.399846076965332031e-02,2.386361645026402911e+00
6.592774391174316406e-02,2.393147038596515674e+00
6.795573234558105469e-02,2.403030681971392912e+00
6.993103027343750000e-02,2.414095689546547963e+00
7.192802429199218750e-02,2.424505045951014459e+00
7.392668724060058594e-02,2.431305936730615791e+00
7.592988014221191406e-02,2.439205341244380598e+00
7.792401313781738281e-02,2.445624166205425887e+00
7.992720603942871094e-02,2.452513867916329637e+00
8.192491531372070312e-02,2.458809907294500885e+00
8.392739295959472656e-02,2.465784843657594205e+00
8.592462539672851562e-02,2.471370395585345658e+00
8.792662620544433594e-02,2.477298078214893007e+00
8.992505073547363281e-02,2.482056317574538706e+00
9.192633628845214844e-02,2.487047611123038848e+00
9.393262863159179688e-02,2.492363153977770196e+00
9.593915939331054688e-02,2.488093672763547204e+00
9.792399406433105469e-02,2.498137056605465034e+00
9.992647171020507812e-02,2.504311502493798969e+00
1.019213199615478516e-01,2.507915795793032032e+00
1.039240360260009766e-01,2.512634100035917584e+00
1.059236526489257812e-01,2.513998450517469507e+00
1.079237461090087891e-01,2.519998254775793090e+00
1.099295616149902344e-01,2.520703377807543166e+00
1.119267940521240234e-01,2.525780502054751242e+00
1.139247417449951172e-01,2.529719773497554502e+00
1.159267425537109375e-01,2.531886402593422236e+00
1.179249286651611328e-01,2.533572618195130577e+00
1.199269294738769531e-01,2.536684577069828084e+00
1.219260692596435547e-01,2.539093797098850747e+00
1.239271163940429688e-01,2.541328971544381421e+00
1.259257793426513672e-01,2.542810743190138556e+00
1.279273033142089844e-01,2.545023863914473328e+00
1.299245357513427734e-01,2.545591300200378715e+00
1.319267749786376953e-01,2.547206586266349326e+00
1.339251995086669922e-01,2.549260562570162314e+00
1.359262466430664062e-01,2.549663490016876644e+00
1.379246711730957031e-01,2.550566500492871036e+00
1.399264335632324219e-01,2.551744884460554808e+00
1.419246196746826172e-01,2.552155560512013643e+00
1.439266204833984375e-01,2.552914327730456456e+00
1.459245681762695312e-01,2.552785581682393889e+00
1.479265689849853516e-01,2.553222483780680285e+00
1.499245166778564453e-01,2.551740116088404342e+00
1.519269943237304688e-01,2.552483386097358142e+00
1.539249420166015625e-01,2.552080458650643813e+00
1.559267044067382812e-01,2.551473087247978278e+00
1.579632759094238281e-01,2.551099962127204357e+00
1.600215435028076172e-01,2.523848119240775123e+00
1.619639396667480469e-01,2.494660913307775729e+00
1.640298366546630859e-01,2.480718193139814343e+00
1.659803390502929688e-01,2.469085749278753905e+00
1.679737567901611328e-01,2.450591617893173257e+00
1.699733734130859375e-01,2.484805284119282476e+00
1.719994544982910156e-01,2.467396553444451524e+00
1.739470958709716797e-01,2.469153698581898038e+00
1.760902404785156250e-01,2.475337085168014095e+00
1.790812015533447266e-01,2.394647883730874671e+00
1.811139583587646484e-01,2.395355986995218789e+00
1.839692592620849609e-01,2.343108337296049282e+00
1.862466335296630859e-01,2.348765414806057716e+00
1.888940334320068359e-01,2.333986441372208898e+00
1.908462047576904297e-01,2.333858887417183947e+00
1.928722858428955078e-01,2.334702293241297522e+00
1.948628425598144531e-01,2.329761663646896519e+00
1.969239711761474609e-01,2.326188364766641037e+00
1.989288330078125000e-01,2.325744906156647751e+00
2.009618282318115234e-01,2.323739209620858226e+00
2.029402256011962891e-01,2.326273599418830607e+00
2.049162387847900391e-01,2.325176277777704748e+00
2.069063186645507812e-01,2.321867027505281733e+00
2.089192867279052734e-01,2.326666394074725197e+00
2.109465599060058594e-01,2.327334562222309167e+00
2.129259109497070312e-01,2.326491752444714400e+00
2.149157524108886719e-01,2.328534999911189285e+00
2.169506549835205078e-01,2.332396785306547482e+00
2.189555168151855469e-01,2.337323705831015896e+00
2.209510803222656250e-01,2.336342613261057632e+00
2.229721546173095703e-01,2.338213007237077701e+00
2.249503135681152344e-01,2.339394967483874321e+00
2.269134521484375000e-01,2.342464011009217639e+00
2.289063930511474609e-01,2.347921412935425334e+00
2.309145927429199219e-01,2.351141256230027121e+00
2.329175472259521484e-01,2.353732866493805087e+00
2.349174022674560547e-01,2.361008806348896982e+00
2.368595600128173828e-01,2.366075797805285319e+00
2.388076782226562500e-01,2.374025270226630013e+00
2.407996654510498047e-01,2.422448089414607431e+00
2.427985668182373047e-01,2.437588863085372815e+00
2.447988986968994141e-01,2.450483733473268977e+00
2.467975616455078125e-01,2.463402445721917911e+00
2.487983703613281250e-01,2.476178106806052437e+00
2.507982254028320312e-01,2.486926017633201980e+00
2.527985572814941406e-01,2.498039304976380492e+00
2.547974586486816406e-01,2.509397567438789167e+00
2.567977905273437500e-01,2.519514265002520848e+00
2.587966918945312500e-01,2.529766861172540349e+00
2.607979774475097656e-01,2.539123003378272347e+00
2.627966403961181641e-01,2.545768326016464744e+00
2.647969722747802734e-01,2.555213279153499606e+00
2.667958736419677734e-01,2.563134737388460316e+00
2.687964439392089844e-01,2.570803471899446357e+00
2.707953453063964844e-01,2.576459953362935984e+00
2.727963924407958984e-01,2.583030770186277802e+00
2.747957706451416016e-01,2.589847754221886955e+00
2.767958641052246094e-01,2.594617318465390010e+00
2.787942886352539062e-01,2.599959087366948918e+00
2.807950973510742188e-01,2.604249430209330196e+00
2.827947139739990234e-01,2.608002735138265304e+00
2.847948074340820312e-01,2.612085653792101780e+00
2.867939472198486328e-01,2.615521265926512129e+00
2.887942790985107422e-01,2.618007375956461047e+00
2.907974720001220703e-01,2.620522096219312758e+00
2.927949428558349609e-01,2.621894791352127996e+00
2.947945594787597656e-01,2.625523522558632195e+00
2.967948913574218750e-01,2.626729920712699951e+00
2.987937927246093750e-01,2.628062084682236232e+00
3.007934093475341797e-01,2.627994135379092100e+00
3.027932643890380859e-01,2.629059866554721125e+00
3.047928810119628906e-01,2.628820255854160237e+00
3.067929744720458984e-01,2.628928140274064518e+00
3.087930679321289062e-01,2.629257753998965441e+00
3.107922077178955078e-01,2.628312424220135668e+00
3.127932548522949219e-01,2.627346828859666417e+00
3.147923946380615234e-01,2.626254871637209831e+00
3.167922496795654297e-01,2.624294474636849728e+00
3.187918663024902344e-01,2.623535111371888107e+00
3.207921981811523438e-01,2.621837570886322411e+00
3.227913379669189453e-01,2.619856908304322829e+00
3.248779773712158203e-01,2.619328811088658782e+00
3.268427848815917969e-01,2.566101260912568627e+00
3.288102149963378906e-01,2.596350025695565389e+00
3.308072090148925781e-01,2.596825670817574316e+00
3.328065872192382812e-01,2.597054552680796657e+00
3.348057270050048828e-01,2.594998192190908437e+00
3.368058204650878906e-01,2.593352507752479053e+00
3.388049602508544922e-01,2.591903518665256367e+00
3.408050537109375000e-01,2.590480755624861242e+00
3.428044319152832031e-01,2.587558935589663545e+00
3.448045253753662109e-01,2.586288760458083313e+00
3.468046188354492188e-01,2.583148787397001822e+00
3.488035202026367188e-01,2.581788609241081556e+00
3.508031368255615234e-01,2.578060934312454755e+00
3.528034687042236328e-01,2.577405879188284565e+00
3.548059463500976562e-01,2.574166366358562108e+00
3.568043708801269531e-01,2.572018214704777428e+00
3.588037490844726562e-01,2.569110103739512319e+00
3.608038425445556641e-01,2.566664524872842357e+00
3.628025054931640625e-01,2.565271564158387640e+00
3.648030757904052734e-01,2.561844296675240606e+00
3.668029308319091797e-01,2.560034103397620164e+00
3.688030242919921875e-01,2.555241889386402399e+00
3.708014488220214844e-01,2.553092545639580102e+00
3.728022575378417969e-01,2.551595872830852763e+00
3.748009204864501953e-01,2.549332088152419296e+00
3.768014907836914062e-01,2.547172015568258452e+00
3.788013458251953125e-01,2.544889157401222679e+00
3.808002471923828125e-01,2.542701070630677851e+00
3.827979564666748047e-01,2.540623848512631344e+00
3.848040103912353516e-01,2.538735573141047031e+00
3.868548870086669922e-01,2.536217872645601279e+00
3.888676166534423828e-01,2.503660619695260436e+00
3.913135528564453125e-01,2.493672072133072959e+00
3.939495086669921875e-01,2.480776605698657544e+00
3.959181308746337891e-01,2.494906484473524699e+00
3.978312015533447266e-01,2.458173925658932557e+00
3.997905254364013672e-01,2.480265197785520126e+00
4.017875194549560547e-01,2.482412753392785998e+00
4.037866592407226562e-01,2.484814224817064598e+00
4.057855606079101562e-01,2.484459577138373731e+00
4.077870845794677734e-01,2.486555276698503292e+00
4.098126888275146484e-01,2.484951315516390480e+00
4.118046760559082031e-01,2.471899088847528514e+00
4.137887954711914062e-01,2.478388843344311976e+00
4.157862663269042969e-01,2.469390925096383693e+00
4.177858829498291016e-01,2.470192607664180695e+00
4.197854995727539062e-01,2.469638284401689088e+00
4.217851161956787109e-01,2.462529237571863927e+00
4.237873554229736328e-01,2.454778248641282357e+00
4.258062839508056641e-01,2.446919971337314870e+00
4.277951717376708984e-01,2.436192326091805249e+00
4.297890663146972656e-01,2.437455348665159782e+00
4.317955970764160156e-01,2.435908607948852556e+00
4.337849617004394531e-01,2.433826617458655583e+00
4.357872009277343750e-01,2.426694920861115712e+00
4.377849102020263672e-01,2.428151062506564095e+00
4.397866725921630859e-01,2.429357460660631851e+00
4.418256282806396484e-01,2.334303538120214849e+00
4.438207149505615234e-01,2.381201670313080498e+00
4.457871913909912109e-01,2.390407608796072836e+00
4.477846622467041016e-01,2.397325324693361015e+00
4.497880935668945312e-01,2.400208401704836181e+00
4.517838954925537109e-01,2.403683948956006677e+00
4.537830352783203125e-01,2.406695175969025602e+00
4.557852745056152344e-01,2.412652660924513359e+00
4.577851295471191406e-01,2.415857603056144942e+00
4.597861766815185547e-01,2.333410660435040196e+00
4.617838859558105469e-01,2.386442707352960824e+00
4.637849330902099609e-01,2.395252870947464974e+00
4.657835960388183594e-01,2.398127603307676825e+00
4.677844047546386719e-01,2.406221915033091907e+00
4.697885513305664062e-01,2.412415434410027704e+00
4.717843532562255859e-01,2.418499877274021603e+00
4.737818241119384766e-01,2.423558524079147070e+00
4.757821559906005859e-01,2.428748301118409891e+00
4.777817726135253906e-01,2.434289745603769539e+00
4.798705577850341797e-01,2.437160901684868541e+00
4.819972515106201172e-01,2.365716977800962795e+00
4.851503372192382812e-01,2.383264587314675609e+00
4.890437126159667969e-01,2.441551976388928402e+00
4.930360317230224609e-01,2.459782655213195834e+00
4.970324039459228516e-01,2.480278906855452714e+00
5.010321140289306641e-01,2.498658597309422191e+00
5.050306320190429688e-01,2.458662087757836456e+00
5.090699195861816406e-01,2.498620450332218468e+00
5.130331516265869141e-01,2.515769900771367862e+00
5.170297622680664062e-01,2.532061640269951841e+00
5.210304260253906250e-01,2.544614976002570916e+00
5.250298976898193359e-01,2.479147014516235981e+00
5.291516780853271484e-01,2.532300058877475113e+00
5.330431461334228516e-01,2.539760177106878292e+00
5.370311737060546875e-01,2.550508683980546643e+00
5.410287380218505859e-01,2.562206096912157172e+00
5.450294017791748047e-01,2.513455452138835255e+00
5.490300655364990234e-01,2.539481227336076063e+00
5.530326366424560547e-01,2.550854987007974195e+00
5.570282936096191406e-01,2.559892840372662626e+00
5.610275268554687500e-01,2.567681380233929112e+00
5.650267601013183594e-01,2.572955795878862695e+00
5.690255165100097656e-01,2.480313477553543589e+00
5.730321407318115234e-01,2.548132246510058430e+00
5.770258903503417969e-01,2.555614418460657511e+00
5.811510086059570312e-01,2.561716146673696848e+00
5.851833820343017578e-01,2.565688796721553366e+00
5.893127918243408203e-01,2.502546012705089140e+00
5.933148860931396484e-01,2.551238840966086663e+00
5.973091125488281250e-01,2.559192485713063014e+00
6.013126373291015625e-01,2.565743633001283719e+00
6.053104400634765625e-01,2.570208617473675794e+00
6.096823215484619141e-01,2.568753667921265027e+00
6.133160591125488281e-01,2.482695875489219883e+00
6.173081398010253906e-01,2.540373508974731909e+00
6.213068962097167969e-01,2.546384042070393594e+00
6.253063678741455078e-01,2.550993269800337693e+00
6.293063163757324219e-01,2.556289143119948370e+00
6.333143711090087891e-01,2.518865766390057548e+00
6.373124122619628906e-01,2.530296150481242012e+00
6.413104534149169922e-01,2.535361353798073925e+00
6.453073024749755859e-01,2.540447418743064123e+00
6.493079662322998047e-01,2.543553417152573548e+00
6.533145904541015625e-01,2.463838751773685498e+00
6.573112010955810547e-01,2.502801716661657849e+00
6.613097190856933594e-01,2.513459028417948105e+00
6.653065681457519531e-01,2.517989578007409524e+00
6.693043708801269531e-01,2.522856297833478312e+00
6.733150482177734375e-01,2.473208603049350085e+00
6.773519515991210938e-01,2.495444118433489677e+00
6.815099716186523438e-01,2.468599375319406430e+00
6.855170726776123047e-01,2.466990645765143153e+00
6.896965503692626953e-01,2.471260723025884953e+00
6.937944889068603516e-01,2.471942004196882703e+00
6.976482868194580078e-01,2.384729073611387307e+00
7.016444206237792969e-01,2.478426990321515699e+00
7.056434154510498047e-01,2.490905820239284196e+00
7.096405029296875000e-01,2.501994669675191574e+00
7.136542797088623047e-01,2.510745228617814462e+00
7.176456451416015625e-01,2.438459687049351565e+00
7.216422557830810547e-01,2.538432781509492475e+00
7.256453037261962891e-01,2.509391010927082277e+00
7.296409606933593750e-01,2.520113291753923068e+00
7.336485385894775391e-01,2.526453438574485677e+00
7.376403808593750000e-01,2.525528374377295382e+00
7.416391372680664062e-01,2.506681383452580292e+00
7.456388473510742188e-01,2.516505422175577156e+00
7.496380805969238281e-01,2.525953951591724422e+00
7.536442279815673828e-01,2.533070150979775281e+00
7.576389312744140625e-01,2.501249015480162541e+00
7.616384029388427734e-01,2.508731783477280430e+00
7.656378746032714844e-01,2.518806757784695538e+00
7.696368694305419922e-01,2.528154555339164222e+00
7.736463546752929688e-01,2.533146444934182728e+00
7.776379585266113281e-01,2.576649496155916985e+00
7.817757129669189453e-01,2.425253084332118725e+00
7.857854366302490234e-01,2.517948450797611759e+00
7.900574207305908203e-01,2.529379430935315032e+00
7.950899600982666016e-01,2.532478276786598759e+00
8.000607490539550781e-01,2.505267561109967289e+00
8.050551414489746094e-01,2.510403097916018567e+00
8.101830482482910156e-01,2.519633474306282483e+00
8.150835037231445312e-01,2.525354328793803393e+00
8.200535774230957031e-01,2.531642619567229691e+00
8.250544071197509766e-01,2.498978674290022184e+00
8.300569057464599609e-01,2.510624827221015209e+00
8.350877761840820312e-01,2.518861594064425891e+00
8.400552272796630859e-01,2.525068822511294275e+00
8.450512886047363281e-01,2.450996333479444012e+00
8.500514030456542969e-01,2.503958046908145718e+00
8.550796508789062500e-01,2.513095440041475115e+00
8.600552082061767578e-01,2.519789042447691418e+00
8.650510311126708984e-01,2.468532618109299914e+00
8.700480461120605469e-01,2.494526206794525081e+00
8.751251697540283203e-01,2.503344715040292101e+00
8.800528049468994141e-01,2.510729135361806641e+00
8.851542472839355469e-01,2.468712028111461176e+00
8.896286487579345703e-01,2.484747467606958082e+00
8.936352729797363281e-01,2.537364666147788217e+00
8.976330757141113281e-01,2.506907285083208592e+00
9.016275405883789062e-01,2.513181270740183493e+00
9.056267738342285156e-01,2.509695590698193257e+00
9.096248149871826172e-01,2.507599295091544889e+00
9.136309623718261719e-01,2.515367569371171896e+00
9.176270961761474609e-01,2.517935933820716787e+00
9.216246604919433594e-01,2.521217765953274625e+00
9.256234169006347656e-01,2.522853913647403079e+00
9.296247959136962891e-01,2.511682809791899729e+00
9.336285591125488281e-01,2.521781625960067164e+00
9.376261234283447266e-01,2.524117532267276420e+00
9.416224956512451172e-01,2.525790634845570981e+00
9.456226825714111328e-01,2.526433769039365007e+00
9.496228694915771484e-01,2.524456086689959466e+00
9.536256790161132812e-01,2.523508372725054461e+00
9.576249122619628906e-01,2.524510922969689819e+00
9.616205692291259766e-01,2.524344029944423529e+00
9.656200408935546875e-01,2.524500790178870080e+00
9.696400165557861328e-01,2.524221840408067852e+00
9.736604690551757812e-01,2.519051136857406892e+00
9.776566028594970703e-01,2.519506516397776341e+00
9.816522598266601562e-01,2.520367207570935353e+00
9.858703613281250000e-01,2.521093788277362524e+00
9.900815486907958984e-01,2.522679868063911091e+00
9.951155185699462891e-01,2.513407172370811793e+00
1.000081539154052734e+00,2.515242995648740987e+00
1.005077123641967773e+00,2.515892686354242347e+00
1.010089874267578125e+00,2.516250910312046063e+00
1.015122175216674805e+00,2.506916821827509523e+00
1.020076036453247070e+00,2.494373022839191378e+00
1.025085687637329102e+00,2.501105368269129769e+00
1.030082702636718750e+00,2.503567636438326360e+00
1.035107851028442383e+00,2.526681128344670402e+00
1.040077209472656250e+00,2.500350773376318614e+00
1.045071840286254883e+00,2.502853572708794161e+00
1.050075054168701172e+00,2.504465878542170287e+00
1.055138587951660156e+00,2.534619871928676549e+00
1.060074329376220703e+00,2.501955330604950234e+00
1.065069437026977539e+00,2.504130304352081282e+00
1.070070505142211914e+00,2.505880296931302098e+00
1.075106620788574219e+00,2.506379783914063353e+00
1.080075025558471680e+00,2.505509555996603410e+00
1.085211515426635742e+00,2.507546246951370961e+00
1.089861631393432617e+00,2.508517206730509486e+00
1.093653678894042969e+00,2.514856161458034478e+00
1.097647666931152344e+00,2.512251438170842732e+00
1.101640701293945312e+00,2.513928117028250142e+00
1.105643272399902344e+00,2.513546051209694099e+00
1.109642744064331055e+00,2.514981927273503004e+00
1.113646507263183594e+00,2.489189802311635447e+00
1.117642879486083984e+00,2.502097189676426581e+00
1.121641874313354492e+00,2.504720986452220188e+00
1.125641345977783203e+00,2.504911125291719998e+00
1.129640102386474609e+00,2.507569492765604480e+00
1.133642673492431641e+00,2.508417070915349711e+00
1.137640714645385742e+00,2.510376871869191007e+00
1.141638994216918945e+00,2.512474359568876991e+00
1.145636796951293945e+00,2.504420579006740866e+00
1.149636030197143555e+00,2.511433662347037910e+00
1.153642177581787109e+00,2.512533964220757809e+00
1.157639265060424805e+00,2.513609232140687766e+00
1.161638498306274414e+00,2.515452207976842658e+00
1.166013002395629883e+00,2.516088189612411430e+00
1.169974803924560547e+00,2.498359381956980485e+00
1.173990488052368164e+00,2.490502892792569867e+00
1.177983283996582031e+00,2.478211817528225946e+00
1.181945323944091797e+00,2.472313937224619007e+00
1.185955762863159180e+00,2.464715536202852331e+00
1.189984798431396484e+00,2.459906632889107936e+00
1.193984985351562500e+00,2.438420347979110225e+00
1.197843551635742188e+00,2.445775562021203164e+00
1.201702594757080078e+00,2.450770431848815711e+00
1.205623388290405273e+00,2.451530391160296141e+00
1.209606409072875977e+00,2.453161174435755765e+00
1.213620662689208984e+00,2.454646522360625749e+00
1.217610836029052734e+00,2.496533095423352222e+00
1.221641778945922852e+00,2.491242586522410818e+00
1.225679159164428711e+00,2.497914135207430775e+00
1.229720354080200195e+00,2.448169880887255623e+00
1.233699083328247070e+00,2.498696148240107107e+00
1.237676620483398438e+00,2.464116509451450110e+00
1.241682529449462891e+00,2.467093761812896968e+00
1.245656490325927734e+00,2.469787296031391133e+00
1.249665975570678711e+00,2.472578581878969839e+00
1.253660202026367188e+00,2.475295361911697523e+00
1.257653474807739258e+00,2.479362187309525734e+00
1.261661529541015625e+00,2.481575308033860505e+00
1.265655994415283203e+00,2.486168442507796783e+00
1.269657373428344727e+00,2.489864526970926306e+00
1.273658275604248047e+00,2.491520344200175430e+00
1.277649164199829102e+00,2.496424018910410325e+00
1.281644821166992188e+00,2.500343024771574107e+00
1.285685062408447266e+00,2.502476275262388583e+00
1.289644718170166016e+00,2.507026494386970228e+00
1.291810989379882812e+00,2.506040633444861498e+00
1.293753862380981445e+00,2.465593512725056780e+00
1.295758485794067383e+00,2.456278497729122545e+00
1.297764778137207031e+00,2.446536713425721210e+00
1.299766778945922852e+00,2.436441473536667068e+00
1.301753997802734375e+00,2.428267291577731690e+00
1.303755283355712891e+00,2.419984629152372779e+00
1.305757761001586914e+00,2.413253475815472004e+00
1.307752609252929688e+00,2.406081844101171985e+00
1.309757947921752930e+00,2.400689411245514382e+00
1.311757087707519531e+00,2.394402312565125701e+00
1.313745737075805664e+00,2.388074682721457620e+00
1.315749168395996094e+00,2.379074976333972913e+00
1.317762613296508789e+00,2.373103186262033759e+00
1.319900751113891602e+00,2.384729669657906115e+00
1.322030067443847656e+00,2.373563930221072482e+00
1.324120521545410156e+00,2.375719830479601669e+00
1.326991558074951172e+00,2.354383749292343619e+00
1.329075813293457031e+00,2.362520380320594526e+00
1.332645654678344727e+00,2.309434689215980718e+00
1.334843158721923828e+00,2.301215207721615919e+00
1.336835384368896484e+00,2.299365675373754137e+00
1.338824272155761719e+00,2.283495340763967096e+00
1.340784311294555664e+00,2.278167280932340777e+00
1.342811584472656250e+00,2.272568019934656736e+00
1.344872236251831055e+00,2.270046147113579327e+00
1.346889495849609375e+00,2.262621791675304195e+00
1.348934173583984375e+00,2.264761002631306752e+00
1.350952863693237305e+00,2.258692056976801865e+00
1.352977037429809570e+00,2.259091408144403346e+00
1.354990243911743164e+00,2.246997028231266569e+00
1.357835054397583008e+00,2.234513429941348051e+00
1.359794378280639648e+00,2.253757983894107753e+00
1.361773729324340820e+00,2.277467522319259974e+00
1.363716602325439453e+00,2.311053551561063735e+00
1.365708589553833008e+00,2.362171097060572933e+00
1.367708206176757812e+00,2.385304854548556008e+00
1.369708061218261719e+00,2.401993561028666679e+00
1.371707677841186523e+00,2.423273017796637951e+00
1.373707771301269531e+00,2.439461641247468116e+00
1.375709056854248047e+00,2.459443504743993980e+00
1.377707719802856445e+00,2.472805079556116947e+00
1.379706859588623047e+00,2.491743265598209689e+00
1.381706476211547852e+00,2.506553233451036533e+00
1.383706331253051758e+00,2.521928849450212784e+00
1.385705471038818359e+00,2.534860674722275053e+00
1.387710332870483398e+00,2.548646038609271081e+00
1.389705896377563477e+00,2.559269375713989270e+00
1.391706466674804688e+00,2.574453660780627651e+00
1.393705606460571289e+00,2.584077427873304966e+00
1.395705223083496094e+00,2.592266510995210549e+00
1.397705793380737305e+00,2.604163599510621818e+00
1.399705410003662109e+00,2.615503384530947883e+00
1.401705265045166016e+00,2.622887804852462423e+00
1.403704643249511719e+00,2.631748632401064825e+00
1.405703544616699219e+00,2.639126496210872475e+00
1.407704353332519531e+00,2.646698671185812035e+00
1.409709453582763672e+00,2.652877885446296435e+00
1.411706209182739258e+00,2.655940968506451672e+00
1.413703680038452148e+00,2.660352308792151010e+00
1.415703773498535156e+00,2.667715271438988456e+00
1.417703151702880859e+00,2.671401223111298240e+00
1.419703245162963867e+00,2.675570568510361902e+00
1.421709060668945312e+00,2.677852830630878422e+00
1.423702716827392578e+00,2.681047043925171458e+00
1.425703048706054688e+00,2.683179102322948317e+00
1.427704095840454102e+00,2.684614382340238414e+00
1.429701566696166992e+00,2.686536632363394794e+00
1.431704759597778320e+00,2.687051020509126253e+00
1.433702230453491211e+00,2.687343679349861070e+00
1.435703516006469727e+00,2.686872802600002608e+00
1.437701463699340820e+00,2.686388812826730366e+00
1.439705371856689453e+00,2.686136685149274506e+00
1.441701412200927734e+00,2.685594282817159062e+00
1.443734169006347656e+00,2.684583387921260389e+00
1.445733308792114258e+00,2.662924845567327115e+00
1.447700738906860352e+00,2.673768123837485966e+00
1.449700832366943359e+00,2.672456821496107970e+00
1.451704025268554688e+00,2.670339664261300872e+00
1.453700304031372070e+00,2.665640433507017182e+00
1.455700397491455078e+00,2.664304693258368051e+00
1.457700490951538086e+00,2.661401946711772215e+00
1.459701776504516602e+00,2.658825237610964454e+00
1.461699485778808594e+00,2.654682118258728796e+00
1.463701009750366211e+00,2.651563602872324399e+00
1.465698719024658203e+00,2.648678737721292809e+00
1.467700719833374023e+00,2.644723969069000535e+00
1.469698190689086914e+00,2.640481905994642275e+00
1.471699714660644531e+00,2.636365608735752986e+00
1.473697185516357422e+00,2.631690219842221623e+00
1.475699663162231445e+00,2.628050163751860069e+00
1.477697610855102539e+00,2.623917773236962958e+00
1.479699373245239258e+00,2.620311095751654662e+00
1.481698036193847656e+00,2.615160657782633180e+00
1.483700275421142578e+00,2.610650969821330492e+00
1.485697031021118164e+00,2.605721665110786400e+00
1.487698078155517578e+00,2.601374101802599537e+00
1.489696264266967773e+00,2.597209524775686784e+00
1.491698741912841797e+00,2.592540096347343503e+00
1.493695974349975586e+00,2.587257932097665414e+00
1.495698451995849609e+00,2.584317038573865855e+00
1.497696161270141602e+00,2.579820463635976946e+00
1.499698638916015625e+00,2.575670191725515146e+00
1.501695632934570312e+00,2.571547934001437774e+00
1.503698110580444336e+00,2.567932911864866163e+00
1.505694866180419922e+00,2.563514419020941126e+00
1.507711410522460938e+00,2.559569783159468592e+00
1.509696483612060547e+00,2.556600279402766240e+00
1.511696577072143555e+00,2.552850550752943981e+00
1.513696193695068359e+00,2.549419110944165290e+00
1.515698432922363281e+00,2.544515436233929950e+00
1.517695188522338867e+00,2.540781800840115512e+00
1.519697904586791992e+00,2.538733188954971798e+00
1.521694660186767578e+00,2.534798685884319003e+00
1.523696422576904297e+00,2.531773153754848682e+00
1.525694370269775391e+00,2.528543177669427156e+00
1.527696132659912109e+00,2.525508108795655904e+00
1.529693126678466797e+00,2.522663774807903270e+00
1.531695127487182617e+00,2.520081701288426235e+00
1.533694028854370117e+00,2.517028751019090738e+00
1.535695552825927734e+00,2.514665426572015861e+00
1.537693500518798828e+00,2.512750329107085179e+00
1.539695501327514648e+00,2.509953082794318391e+00
1.541693687438964844e+00,2.507677377185508760e+00
1.543695926666259766e+00,2.506227792051767267e+00
1.545692920684814453e+00,2.504107058537847763e+00
1.547695159912109375e+00,2.501187026642206490e+00
1.549694538116455078e+00,2.500136196629547669e+00
1.551694154739379883e+00,2.498210370327278440e+00
1.553693056106567383e+00,2.496296464955385375e+00
1.555693864822387695e+00,2.494517266096742958e+00
1.557691335678100586e+00,2.493776976320383199e+00
1.559693813323974609e+00,2.492116986765502418e+00
1.561691999435424805e+00,2.491225897219884189e+00
1.563693523406982422e+00,2.490848003726959803e+00
1.565691232681274414e+00,2.490038572554418295e+00
1.567692518234252930e+00,2.489543257897288697e+00
1.569691896438598633e+00,2.487110196007513707e+00
1.571691513061523438e+00,2.487284241591005696e+00
1.573706626892089844e+00,2.486484943209283927e+00
1.575766801834106445e+00,2.482129631296352112e+00
1.577708721160888672e+00,2.459021503808677789e+00
1.579695701599121094e+00,2.477062043793444968e+00
1.581850528717041016e+00,2.477639612870170094e+00
1.583737134933471680e+00,2.456790501688778772e+00
1.585688114166259766e+00,2.474988994001030118e+00
1.587692022323608398e+00,2.477052507049144037e+00
1.589689493179321289e+00,2.476536926810374961e+00
1.591691732406616211e+00,2.477529940310709389e+00
1.593688726425170898e+00,2.478851971489425932e+00
1.595690727233886719e+00,2.480039892201410634e+00
1.597688913345336914e+00,2.480678854069573003e+00
1.599690198898315430e+00,2.482077775249215801e+00
1.601687192916870117e+00,2.482973037120465687e+00
1.603690147399902344e+00,2.483642397361087273e+00
1.605687618255615234e+00,2.484704552257603893e+00
1.607689619064331055e+00,2.485650478082952475e+00
1.609687805175781250e+00,2.485832868317707778e+00
1.611696004867553711e+00,2.487309275544795639e+00
1.613690137863159180e+00,2.482227382925436654e+00
1.615687847137451172e+00,2.485796509480060479e+00
1.617687463760375977e+00,2.486711440886431035e+00
1.619688034057617188e+00,2.487246690660320780e+00
1.621683597564697266e+00,2.486989794610714455e+00
1.623692512512207031e+00,2.489847241621880869e+00
1.625689506530761719e+00,2.486977873680338291e+00
1.627688884735107422e+00,2.490722237911491277e+00
1.629685401916503906e+00,2.492598592352699427e+00
1.631687879562377930e+00,2.493082582125971669e+00
1.633686304092407227e+00,2.494165002604127324e+00
1.635687112808227539e+00,2.495516240062265467e+00
1.637684822082519531e+00,2.496581375191375685e+00
1.639694213867187500e+00,2.497268616827561516e+00
1.641685485839843750e+00,2.467801269030722278e+00
1.643721818923950195e+00,2.476824221232440504e+00
1.645686864852905273e+00,2.467457946235888766e+00
1.647687196731567383e+00,2.480944094770442643e+00
1.649685859680175781e+00,2.483886180387279818e+00
1.651686906814575195e+00,2.487003503680647043e+00
1.653685569763183594e+00,2.488740383236454079e+00
1.655685424804687500e+00,2.490105925811043619e+00
1.657685041427612305e+00,2.491087614427520691e+00
1.659685850143432617e+00,2.494662105400813346e+00
1.661683082580566406e+00,2.497155367988987962e+00
1.663685321807861328e+00,2.498527467075284392e+00
1.665682077407836914e+00,2.500505745471208741e+00
1.667684316635131836e+00,2.502855956894869394e+00
1.669682502746582031e+00,2.504583895752894307e+00
1.671684026718139648e+00,2.506645024614932993e+00
1.673684120178222656e+00,2.506115735306231329e+00
1.675691604614257812e+00,2.496788203333402123e+00
1.677682161331176758e+00,2.507436574391910256e+00
1.679683923721313477e+00,2.509414852787834604e+00
1.681681156158447266e+00,2.509879173025986177e+00
1.683683633804321289e+00,2.511076630482271810e+00
1.685681343078613281e+00,2.513302864230020361e+00
1.687681674957275391e+00,2.514300050055986446e+00
1.689682006835937500e+00,2.515117825879791269e+00
1.691682815551757812e+00,2.515263261230380465e+00
1.693681240081787109e+00,2.518397273826274319e+00
1.695683002471923828e+00,2.519336643139916010e+00
1.697681188583374023e+00,2.520410718966808350e+00
1.699682235717773438e+00,2.522112431778005703e+00
1.701679944992065430e+00,2.522552314108886140e+00
1.703692436218261719e+00,2.523909512032212366e+00
1.705668449401855469e+00,2.522934379927442183e+00
1.707682132720947266e+00,2.525282803211546412e+00
1.709679126739501953e+00,2.526226344850819761e+00
1.711680889129638672e+00,2.525881233916429824e+00
1.713678836822509766e+00,2.527187767885657355e+00
1.715681076049804688e+00,2.527038160209436501e+00
1.717679262161254883e+00,2.527894679056963856e+00
1.719679355621337891e+00,2.529161277909431238e+00
1.721679687500000000e+00,2.529311481632170899e+00
1.723680257797241211e+00,2.530458871180876645e+00
1.725677251815795898e+00,2.530581060717232322e+00
1.727679967880249023e+00,2.531446520262541799e+00
1.729676961898803711e+00,2.531075779327843112e+00
1.731678724288940430e+00,2.531207505608499719e+00
1.733676671981811523e+00,2.531774345847886298e+00
1.735679388046264648e+00,2.530743781416866955e+00
1.737677097320556641e+00,2.532032433990530240e+00
1.739678621292114258e+00,2.531863752825707525e+00
1.741676568984985352e+00,2.531945411198784246e+00
1.743678808212280273e+00,2.532496158182163004e+00
1.745675563812255859e+00,2.531386319564142173e+00
1.747678041458129883e+00,2.532850805860853871e+00
1.749675989151000977e+00,2.532812062837131339e+00
1.751677513122558594e+00,2.532197538876240106e+00
1.753675699234008789e+00,2.532090846549373442e+00
1.755677700042724609e+00,2.530601326298871800e+00
1.757675170898437500e+00,2.530803386068747773e+00
1.759678363800048828e+00,2.530764643045025242e+00
1.761674642562866211e+00,2.531073395141767879e+00
1.763677120208740234e+00,2.531012002350330636e+00
1.765674114227294922e+00,2.529966536756341089e+00
1.767676591873168945e+00,2.530424300482785771e+00
1.769674062728881836e+00,2.529365125818863635e+00
1.771675825119018555e+00,2.530195418619563430e+00
1.773674249649047852e+00,2.528776827904799962e+00
1.775676250457763672e+00,2.527845803242421585e+00
1.777670383453369141e+00,2.528118792548035731e+00
1.779674291610717773e+00,2.527802887893067396e+00
1.781675100326538086e+00,2.526290717874851044e+00
1.783675432205200195e+00,2.526870671137651403e+00
1.785673379898071289e+00,2.526618543460195543e+00
1.787674665451049805e+00,2.526601854157668914e+00
1.789669990539550781e+00,2.525761428566149380e+00
1.791672229766845703e+00,2.525413933445684211e+00
1.793672800064086914e+00,2.524379792735552019e+00
1.795676469802856445e+00,2.523927989474295419e+00
1.797671556472778320e+00,2.524313035525445503e+00
1.799673795700073242e+00,2.523734274355682761e+00
1.801671504974365234e+00,2.523608508540214235e+00
1.803672552108764648e+00,2.520130577102968505e+00
1.805671930313110352e+00,2.520793976878402010e+00
1.807672977447509766e+00,2.521310749210208701e+00
1.809670686721801758e+00,2.520575823852518216e+00
1.811674833297729492e+00,2.520891728507486551e+00
1.813671350479125977e+00,2.516978683111510851e+00
1.815670728683471680e+00,2.518323960104460912e+00
1.817671060562133789e+00,2.518744768946739487e+00
1.819670438766479492e+00,2.518938484065352146e+00
1.821671009063720703e+00,2.517144980090258333e+00
1.823672294616699219e+00,2.518026532891575631e+00
1.825669765472412109e+00,2.517926397076415856e+00
1.827671527862548828e+00,2.517990174053928332e+00
1.829668760299682617e+00,2.518567147084134650e+00
1.831670284271240234e+00,2.517494859396798734e+00
1.833681106567382812e+00,2.517224254277259821e+00
1.835673093795776367e+00,2.515638770537230062e+00
1.837672710418701172e+00,2.516781987760304151e+00
1.839671373367309570e+00,2.516243161707301557e+00
1.841668605804443359e+00,2.516774239155559645e+00
1.843670368194580078e+00,2.516122164263983496e+00
1.845668792724609375e+00,2.516227664497812544e+00
1.847670316696166992e+00,2.517229022649410286e+00
1.849668025970458984e+00,2.515394391464518264e+00
1.851669788360595703e+00,2.516417803337312353e+00
1.853667259216308594e+00,2.515199484252867990e+00
1.855669021606445312e+00,2.514410914708484768e+00
1.857667684555053711e+00,2.514228524473729465e+00
1.859668493270874023e+00,2.514738740293829267e+00
1.861666917800903320e+00,2.514744104712498540e+00
1.863668441772460938e+00,2.514859141690628519e+00
1.865666866302490234e+00,2.514828743318169302e+00
1.867669343948364258e+00,2.514995636343435592e+00
1.869666337966918945e+00,2.514713706340039323e+00
1.871668100357055664e+00,2.515039743785827397e+00
1.873666048049926758e+00,2.515395583557555881e+00
1.875667810440063477e+00,2.514652313548602081e+00
1.877665042877197266e+00,2.514606417966653851e+00
1.879667758941650391e+00,2.515050472623165945e+00
1.881665468215942383e+00,2.515318097510110817e+00
1.883667469024658203e+00,2.514779867503627031e+00
1.885665416717529297e+00,2.514865102155816601e+00
1.887668371200561523e+00,2.515002192855142482e+00
1.889664649963378906e+00,2.515095176112076558e+00
1.891667127609252930e+00,2.515642346816342911e+00
1.893665075302124023e+00,2.515706123793855387e+00
1.895666360855102539e+00,2.514354886335716799e+00
1.897663354873657227e+00,2.515511812628723476e+00
1.899664640426635742e+00,2.515199484252867990e+00
1.901664495468139648e+00,2.512923778644058359e+00
1.903665542602539062e+00,2.515034975413676932e+00
1.905664682388305664e+00,2.514534892384396869e+00
1.907665491104125977e+00,2.514769734712807292e+00
1.909663438796997070e+00,2.514893116342200585e+00
1.911665678024291992e+00,2.514671983083722751e+00
1.913663148880004883e+00,2.515670361002726896e+00
1.915663480758666992e+00,2.515458168442030740e+00
1.917663574218750000e+00,2.514709534014407666e+00
1.919663667678833008e+00,2.515786590073894491e+00
1.921662092208862305e+00,2.514736356107754034e+00
1.923663854598999023e+00,2.515328826347449365e+00
1.925661325454711914e+00,2.513743342607419606e+00
1.927663564682006836e+00,2.515612544490402058e+00
1.929661750793457031e+00,2.515748443096690767e+00
1.931663513183593750e+00,2.516347469848092988e+00
1.933661222457885742e+00,2.516390385197447177e+00
1.935662746429443359e+00,2.516022624495342530e+00
1.937661170959472656e+00,2.516628803804970449e+00
1.939662218093872070e+00,2.517022194507383848e+00
1.941660165786743164e+00,2.517026962879534313e+00
1.943661689758300781e+00,2.517783941958420701e+00
1.945660352706909180e+00,2.517291011487366337e+00
1.947662353515625000e+00,2.517503204048062049e+00
1.949660062789916992e+00,2.518094482194719763e+00
1.951662540435791016e+00,2.518080177078268367e+00
1.953660249710083008e+00,2.518371047779446759e+00
1.955661773681640625e+00,2.517769040795450497e+00
1.957659482955932617e+00,2.517962159867544347e+00
1.959661006927490234e+00,2.519109549416250093e+00
1.961658716201782227e+00,2.519393267559202787e+00
1.963660717010498047e+00,2.519478502211392357e+00
1.965658664703369141e+00,2.519378962442751391e+00
1.967659950256347656e+00,2.519246044069057167e+00
1.969657897949218750e+00,2.520137133614675395e+00
1.971660614013671875e+00,2.520002427101424747e+00
1.973657846450805664e+00,2.520268859895332003e+00
1.975659847259521484e+00,2.519125046625739106e+00
1.977657794952392578e+00,2.520616355015797172e+00
1.979659557342529297e+00,2.520777883622394189e+00
1.981657028198242188e+00,2.520119848265629958e+00
1.983658790588378906e+00,2.520130577102968505e+00
1.985656023025512695e+00,2.519920172681829218e+00
1.987658262252807617e+00,2.520329060593731629e+00
1.989655971527099609e+00,2.520254554778880607e+00
1.991659164428710938e+00,2.520591321062007228e+00
1.993656396865844727e+00,2.519369425698450460e+00
1.995658397674560547e+00,2.517737450329953663e+00
1.997655868530273438e+00,2.519439759187669825e+00
1.999657869338989258e+00,2.519471349653166659e+00
2.001656293869018555e+00,2.520013751985282102e+00
2.003657341003417969e+00,2.519628705934132018e+00
2.005654573440551758e+00,2.519803943610661623e+00
2.007657289505004883e+00,2.519368829651931652e+00
2.009654521942138672e+00,2.519312205232644875e+00
2.011657476425170898e+00,2.519759240121751009e+00
2.013656854629516602e+00,2.517381610558225180e+00
2.015657186508178711e+00,2.519653143841403153e+00
2.017655611038208008e+00,2.518739404528070214e+00
2.019655704498291016e+00,2.519535722677197942e+00
2.021654844284057617e+00,2.518364491267739869e+00
2.023655652999877930e+00,2.519787850354653802e+00
2.025654315948486328e+00,2.517434658698399108e+00
2.027655124664306641e+00,2.518509926618329064e+00
2.029653072357177734e+00,2.518968882437811363e+00
2.031654596328735352e+00,2.519247236162094783e+00
2.033653497695922852e+00,2.519498171746513027e+00
2.035654306411743164e+00,2.519455852443677646e+00
2.037653207778930664e+00,2.518697681271753641e+00
2.039654970169067383e+00,2.518636288480316399e+00
2.041652917861938477e+00,2.519204916859259402e+00
2.043654203414916992e+00,2.518983783600781567e+00
2.045652389526367188e+00,2.518564166851540609e+00
2.047654390335083008e+00,2.516175212404157424e+00
2.049650907516479492e+00,2.517248096138012148e+00
2.051653385162353516e+00,2.517910303820408036e+00
2.053651094436645508e+00,2.518108191264652351e+00
2.055653333663940430e+00,2.518379392430710073e+00
2.057651042938232422e+00,2.517445387535737655e+00
2.059652805328369141e+00,2.517765464516337648e+00
2.061650753021240234e+00,2.517662348468583833e+00
2.063652753829956055e+00,2.518673839411001314e+00
2.065650463104248047e+00,2.518232168940564453e+00
2.067652225494384766e+00,2.517803611493541371e+00
2.069649696350097656e+00,2.518535556618637816e+00
2.071652173995971680e+00,2.518510522664847873e+00
2.073649406433105469e+00,2.518775167319198705e+00
2.075652360916137695e+00,2.519452872211083605e+00
2.077649354934692383e+00,2.517323794045900787e+00
2.079653263092041016e+00,2.517823281028662041e+00
2.081651210784912109e+00,2.518430056384808768e+00
2.083651542663574219e+00,2.514674367269797983e+00
2.085648298263549805e+00,2.517134847299438594e+00
2.087650775909423828e+00,2.517515721024957021e+00
2.089648008346557617e+00,2.518035473589357753e+00
2.091649055480957031e+00,2.517918648471671350e+00
2.093649387359619141e+00,2.513251008182884050e+00
2.095650434494018555e+00,2.516137065426953701e+00
2.097647190093994141e+00,2.514867486341891833e+00
2.099649667739868164e+00,2.516671123107805830e+00
2.101647615432739258e+00,2.516658010084392050e+00
2.103649616241455078e+00,2.516453566128440844e+00
2.105648040771484375e+00,2.516956033343796140e+00
2.107649564743041992e+00,2.517275514277877324e+00
2.109646558761596680e+00,2.517186703346574905e+00
2.111648559570312500e+00,2.517254056603200230e+00
2.113646268844604492e+00,2.517382206604743988e+00
2.115648031234741211e+00,2.517930569402047514e+00
2.117645978927612305e+00,2.517832817772962972e+00
2.119656801223754883e+00,2.516731919852724264e+00
2.121637582778930664e+00,2.518818678715071702e+00
2.123648405075073242e+00,2.519045772438737618e+00
2.125645875930786133e+00,2.518059315450110081e+00
2.127647876739501953e+00,2.518360318942108211e+00
2.129644870758056641e+00,2.518607678247413606e+00
2.131658792495727539e+00,2.518541517083825898e+00
2.133648395538330078e+00,2.501409948040240749e+00
2.135896444320678711e+00,2.509678305349147820e+00
2.137872934341430664e+00,2.483304438984923035e+00
2.140690565109252930e+00,2.466395791339372590e+00
2.142647027969360352e+00,2.477648553567952217e+00
2.144646167755126953e+00,2.484844623189523816e+00
2.146644353866577148e+00,2.487598954152936415e+00
2.148645401000976562e+00,2.489276229056862633e+00
2.150645256042480469e+00,2.490825950005763900e+00
2.152645111083984375e+00,2.483481464801009064e+00
2.154643535614013672e+00,2.492131887928472622e+00
2.156644344329833984e+00,2.493563591666649870e+00
2.158643960952758789e+00,2.495940029137138083e+00
2.160644054412841797e+00,2.498440444283538397e+00
2.162642955780029297e+00,2.500853240591673909e+00
2.164643526077270508e+00,2.502069771536561404e+00
2.166643381118774414e+00,2.502316534795347991e+00
2.168644428253173828e+00,2.505321205296660025e+00
2.170642614364624023e+00,2.502190172933360657e+00
2.172642946243286133e+00,2.507640422301342653e+00
2.174643039703369141e+00,2.508865297897493463e+00
2.176641941070556641e+00,2.510044873958214851e+00
2.178641796112060547e+00,2.512145937937013684e+00
2.180642366409301758e+00,2.514065207727576023e+00
2.182641744613647461e+00,2.514675559362835600e+00
2.184641599655151367e+00,2.516406478453454998e+00
2.186641216278076172e+00,2.517652811724282902e+00
2.188642263412475586e+00,2.519153060812123091e+00
2.190641164779663086e+00,2.519436182908556976e+00
2.192641973495483398e+00,2.521523537817423222e+00
2.194641113281250000e+00,2.522540989225028785e+00
2.196640014648437500e+00,2.523410025049451111e+00
2.198639631271362305e+00,2.523263397605824299e+00
2.200640439987182617e+00,2.524066272266658917e+00
2.202640295028686523e+00,2.525925937405340438e+00
2.204640150070190430e+00,2.527089420210054005e+00
2.206639051437377930e+00,2.527524534168783976e+00
2.208640098571777344e+00,2.527640763239951571e+00
2.210638999938964844e+00,2.527903619754745979e+00
2.212643146514892578e+00,2.529187503956258798e+00
2.214640140533447266e+00,2.528180781385991782e+00
2.216639518737792969e+00,2.528599802088713933e+00
2.218638658523559570e+00,2.529759708614314651e+00
2.220638513565063477e+00,2.530243698387586893e+00
2.222638130187988281e+00,2.530412975598928416e+00
2.224638938903808594e+00,2.531345788400863217e+00
2.226637601852416992e+00,2.531551424449852039e+00
2.228642463684082031e+00,2.531649772125455389e+00
2.230638027191162109e+00,2.530561987228630461e+00
2.232638597488403320e+00,2.531925145617144768e+00
2.234637260437011719e+00,2.533043924932947721e+00
2.236637353897094727e+00,2.532791201208973053e+00
2.238637208938598633e+00,2.532048527246538061e+00
2.240637063980102539e+00,2.532316152133482934e+00
2.242637634277343750e+00,2.532620135858075106e+00
2.244636774063110352e+00,2.531549636310295615e+00
2.246653079986572266e+00,2.532132569805690014e+00
2.248730182647705078e+00,2.528413835574845780e+00
2.250643491744995117e+00,2.515337170998712679e+00
2.252639293670654297e+00,2.520246210127617292e+00
2.254637479782104492e+00,2.521272006186486170e+00
2.256644964218139648e+00,2.520894708740080592e+00
2.258636236190795898e+00,2.522114219917562128e+00
2.260636806488037109e+00,2.522433700851643312e+00
2.262635231018066406e+00,2.523030343416970300e+00
2.264635562896728516e+00,2.522445025735500668e+00
2.266634702682495117e+00,2.523992362498326703e+00
2.268635749816894531e+00,2.523997130870477168e+00
2.270634412765502930e+00,2.524087133894817203e+00
2.272635459899902344e+00,2.524108591569494298e+00
2.274634361267089844e+00,2.524539533202592612e+00
2.276635169982910156e+00,2.523528638306693939e+00
2.278635263442993164e+00,2.523491087376009023e+00
2.280635118484497070e+00,2.524362507386506582e+00
2.282641172409057617e+00,2.524777951810115884e+00
2.284635782241821289e+00,2.518856825692275425e+00
2.286632537841796875e+00,2.521409096885812051e+00
2.288635969161987305e+00,2.521370353862089519e+00
2.290643215179443359e+00,2.521748247355013905e+00
2.292633771896362305e+00,2.517974676844439319e+00
2.294632911682128906e+00,2.521040740137188596e+00
2.296633005142211914e+00,2.520460190827869429e+00
2.298632621765136719e+00,2.521515193166159907e+00
2.300633668899536133e+00,2.520152630824164408e+00
2.302632331848144531e+00,2.521153988975762150e+00
2.304632186889648438e+00,2.521385255025059724e+00
2.306632280349731445e+00,2.520988884090052284e+00
2.308631896972656250e+00,2.520818414785673145e+00
2.310631752014160156e+00,2.521463933165542404e+00
2.312633037567138672e+00,2.520538272921833300e+00
2.314631223678588867e+00,2.520586552689856763e+00
2.316631317138671875e+00,2.520262899430143921e+00
2.318631172180175781e+00,2.520294489895640755e+00
2.320631504058837891e+00,2.520828547576492884e+00
2.322630882263183594e+00,2.520488205014253413e+00
2.324630975723266602e+00,2.520467343386095127e+00
2.326630115509033203e+00,2.520101966870065713e+00
2.328629732131958008e+00,2.520392837571244105e+00
2.330630064010620117e+00,2.520157995242833682e+00
2.332629680633544922e+00,2.520000638961868322e+00
2.334635257720947266e+00,2.520681324086347264e+00
2.336632251739501953e+00,2.519017758252353634e+00
2.338629961013793945e+00,2.519234719185199811e+00
2.340630531311035156e+00,2.519031467322286222e+00
2.342629432678222656e+00,2.519161405463386405e+00
2.344630002975463867e+00,2.519131603137445996e+00
2.346629142761230469e+00,2.518889608250809875e+00
2.348629474639892578e+00,2.519371213838006884e+00
2.350628376007080078e+00,2.518506350339216215e+00
2.352628231048583984e+00,2.518400254058868359e+00
2.354628324508666992e+00,2.519039811973549536e+00
2.356627702713012695e+00,2.517792286609684016e+00
2.358627796173095703e+00,2.518445553594297781e+00
2.360628366470336914e+00,2.518162431497863896e+00
2.362627267837524414e+00,2.517360152883548086e+00
2.364628553390502930e+00,2.517599763584108974e+00
2.366627454757690430e+00,2.517770232888488113e+00
2.368627071380615234e+00,2.517513932885400596e+00
2.370626688003540039e+00,2.517370285674367825e+00
2.372627258300781250e+00,2.517324390092419595e+00
2.374626636505126953e+00,2.517300548231667268e+00
2.376627922058105469e+00,2.516376676127514589e+00
2.378625869750976562e+00,2.517126502648175279e+00
2.380626916885375977e+00,2.516992988227962247e+00
2.382626533508300781e+00,2.517432274512323875e+00
2.384626388549804688e+00,2.517137231485513826e+00
2.386625528335571289e+00,2.507179082295785122e+00
2.388626337051391602e+00,2.504747212499047748e+00
2.390624523162841797e+00,2.502460182006380762e+00
2.392625331878662109e+00,2.501210272456440009e+00
2.394625186920166016e+00,2.499444186621211372e+00
2.396624803543090820e+00,2.496809661008079217e+00
2.398624658584594727e+00,2.495027481916842760e+00
2.400624990463256836e+00,2.493821679809293812e+00
2.402624845504760742e+00,2.491311727918592567e+00
2.404625177383422852e+00,2.491894661413986967e+00
2.406623840332031250e+00,2.489784060690887202e+00
2.408624887466430664e+00,2.488462029512170659e+00
2.410624265670776367e+00,2.487177549264139031e+00
2.412627696990966797e+00,2.487381993220090237e+00
2.414626598358154297e+00,2.479554114288581967e+00
2.416623592376708984e+00,2.482309041298513375e+00
2.418623208999633789e+00,2.483125028982761773e+00
2.420622825622558594e+00,2.482920585026810567e+00
2.422622203826904297e+00,2.481729684082231824e+00
2.424623012542724609e+00,2.482767997117995673e+00
2.426622629165649414e+00,2.482813296653425095e+00
2.428622245788574219e+00,2.483151851076108141e+00
2.430622816085815430e+00,2.482406196881079108e+00
2.432622909545898438e+00,2.483626900151598260e+00
2.434621572494506836e+00,2.483287153635877598e+00
2.436622142791748047e+00,2.483423648288684671e+00
2.438621520996093750e+00,2.484012542249267153e+00
2.440623521804809570e+00,2.483923731317964734e+00
2.442651033401489258e+00,2.484591899465549147e+00
2.444626331329345703e+00,2.459017331483046132e+00
2.446621417999267578e+00,2.480377254531056064e+00
2.448619365692138672e+00,2.481613455011064229e+00
2.450618267059326172e+00,2.481840548734730145e+00
2.452620267868041992e+00,2.483176288983379276e+00
2.454618453979492188e+00,2.483486829219678338e+00
2.456620454788208008e+00,2.484565077372202779e+00
2.458621740341186523e+00,2.485382853196007602e+00
2.460622787475585938e+00,2.486637531118098821e+00
2.462621450424194336e+00,2.461188728951064331e+00
2.464619874954223633e+00,2.475495037495498263e+00
2.466619491577148438e+00,2.477824387291000630e+00
2.468619108200073242e+00,2.480010685921989033e+00
2.470619440078735352e+00,2.491423188617609696e+00
2.472619056701660156e+00,2.495703994715690044e+00
2.474618673324584961e+00,2.499805390811609129e+00
2.476618528366088867e+00,2.502909601081562130e+00
2.478618621826171875e+00,2.507025898340451420e+00
2.480619668960571289e+00,2.510955633038953749e+00
2.482617378234863281e+00,2.513799967026706383e+00
2.484617233276367188e+00,2.516920270552667649e+00
2.486617803573608398e+00,2.520160975475427723e+00
2.488617420196533203e+00,2.523122134580866760e+00
2.490619897842407227e+00,2.525716129030719959e+00
2.492617130279541016e+00,2.528745237439303128e+00
2.494618177413940430e+00,2.531248632818297484e+00
2.496617555618286133e+00,2.521939578287551331e+00
2.498615741729736328e+00,2.532382313297070642e+00
2.500615835189819336e+00,2.534714047278648241e+00
2.502616405487060547e+00,2.535209361935777839e+00
2.504616498947143555e+00,2.535671297987854178e+00
2.506615638732910156e+00,2.539295856868726720e+00
2.508615732192993164e+00,2.540892069446095025e+00
2.510615587234497070e+00,2.542738025514843958e+00
2.512615919113159180e+00,2.545207446242266247e+00
2.514614820480346680e+00,2.546981876728758643e+00
2.516615152359008789e+00,2.547315066732772415e+00
2.518614768981933594e+00,2.548944657915193979e+00
2.520614385604858398e+00,2.550231522349300839e+00
2.522614002227783203e+00,2.551030820731022608e+00
2.524613618850708008e+00,2.552703327262798361e+00
2.526613235473632812e+00,2.552837437729530201e+00
2.528613805770874023e+00,2.553026980522511202e+00
2.530612945556640625e+00,2.553789920066585672e+00
2.532614231109619141e+00,2.554133838907937992e+00
2.534612894058227539e+00,2.553742236345081018e+00
2.536614179611206055e+00,2.555402225899961799e+00
2.538613080978393555e+00,2.555165595431994952e+00
2.540613174438476562e+00,2.555562562413521199e+00
2.542612314224243164e+00,2.554416364957853069e+00
2.544612646102905273e+00,2.554691142403023640e+00
2.546612262725830078e+00,2.553983635185198331e+00
2.548611879348754883e+00,2.552790946101063163e+00
2.550611734390258789e+00,2.554282254491121229e+00
2.552611827850341797e+00,2.553237384943650490e+00
2.554611682891845703e+00,2.552495307027734306e+00
2.556611776351928711e+00,2.551743692367517191e+00
2.558611392974853516e+00,2.551747268646630040e+00
2.560611724853515625e+00,2.550701207006121685e+00
2.562610864639282227e+00,2.550499147236245712e+00
2.564611673355102539e+00,2.549909061182625614e+00
2.566610336303710938e+00,2.549831575135180550e+00
2.568610906600952148e+00,2.548541134421960841e+00
2.570609331130981445e+00,2.548022573950597724e+00
2.572610616683959961e+00,2.546225493696390618e+00
2.574609994888305664e+00,2.546105092299591366e+00
2.576610326766967773e+00,2.545033400658774259e+00
2.578610658645629883e+00,2.544386094139348575e+00
2.580610752105712891e+00,2.542899554121440975e+00
2.582609415054321289e+00,2.540920083632479010e+00
2.584609508514404297e+00,2.541786139224307295e+00
2.586609601974487305e+00,2.540417616417123714e+00
2.588609457015991211e+00,2.539947931760302868e+00
2.590610980987548828e+00,2.538969223376419837e+00
2.592608928680419922e+00,2.534876171931764066e+00
2.594608306884765625e+00,2.534798089837800195e+00
2.596608638763427734e+00,2.534132901922810266e+00
2.598608255386352539e+00,2.532999817490555916e+00
2.600610017776489258e+00,2.532556954927081438e+00
2.602608919143676758e+00,2.531305257237584261e+00
2.604608535766601562e+00,2.529585066984303854e+00
2.606607437133789062e+00,2.530064884431944439e+00
2.608607769012451172e+00,2.529924813500024516e+00
2.610607147216796875e+00,2.529397908377398085e+00
2.612611532211303711e+00,2.528274360689444666e+00
2.614607572555541992e+00,2.522540989225028785e+00
2.616606712341308594e+00,2.525289955769772110e+00
2.618606567382812500e+00,2.524196210407759100e+00
2.620607137680053711e+00,2.524537745063036187e+00
2.622606039047241211e+00,2.523698511564554270e+00
2.624606132507324219e+00,2.522474828061441077e+00
2.626606225967407227e+00,2.519687714539494028e+00
2.628605842590332031e+00,2.521018686415992693e+00
2.630605220794677734e+00,2.520399990129469803e+00
2.632604598999023438e+00,2.520048918729891785e+00
2.634602546691894531e+00,2.520069184311531263e+00
2.636608839035034180e+00,2.519275250348478767e+00
2.638608217239379883e+00,2.516589464734729109e+00
2.640607833862304688e+00,2.496728598681521305e+00
2.642605543136596680e+00,2.485413251568466819e+00
2.644605398178100586e+00,2.496756016821386481e+00
2.646604299545288086e+00,2.497604787064169329e+00
2.648605346679687500e+00,2.499550282901559228e+00
2.650603532791137695e+00,2.500632703379714883e+00
2.652603626251220703e+00,2.501479089436422498e+00
2.654602766036987305e+00,2.502804696894251890e+00
2.656603097915649414e+00,2.503367960854525620e+00
2.658603668212890625e+00,2.504664362032933411e+00
2.660602807998657227e+00,2.504828870872124469e+00
2.662602901458740234e+00,2.505759895534502846e+00
2.664602756500244141e+00,2.506942451827818275e+00
2.666602373123168945e+00,2.507044971829053281e+00
2.668603420257568359e+00,2.508758009524107990e+00
2.670602083206176758e+00,2.508642972545978012e+00
2.672603130340576172e+00,2.509604991627334414e+00
2.674602270126342773e+00,2.506509126008644728e+00
2.676602125167846680e+00,2.508680523476662927e+00
2.678601503372192383e+00,2.509144247668295691e+00
2.680601835250854492e+00,2.506830991128801145e+00
2.682601213455200195e+00,2.510721982803580943e+00
2.684601068496704102e+00,2.511778773281427846e+00
2.686601161956787109e+00,2.512849272829207337e+00
2.688601016998291016e+00,2.513536514465393168e+00
2.690600633621215820e+00,2.514086665402253118e+00
2.692600488662719727e+00,2.515849771004888158e+00
2.694600582122802734e+00,2.515511812628723476e+00
2.696599960327148438e+00,2.517353000325322387e+00
2.698599576950073242e+00,2.517187299393093713e+00
2.700599908828735352e+00,2.516690792642926500e+00
2.702598810195922852e+00,2.517348827999690730e+00
2.704600095748901367e+00,2.518378200337672457e+00
2.706599235534667969e+00,2.517644467073019587e+00
2.708600044250488281e+00,2.520535888735758068e+00
2.710598468780517578e+00,2.520404758501620268e+00
2.712599039077758789e+00,2.521227898744094365e+00
2.714598655700683594e+00,2.521117034091596043e+00
2.716598749160766602e+00,2.522441449456387819e+00
2.718598365783691406e+00,2.522844972949620956e+00
2.720598220825195312e+00,2.524097862732155750e+00
2.722598075866699219e+00,2.523891034590129312e+00
2.724598169326782227e+00,2.524429860643131907e+00
2.726598501205444336e+00,2.524422708084906208e+00
2.728597640991210938e+00,2.525619569494673033e+00
2.730597734451293945e+00,2.525558772749754599e+00
2.732597112655639648e+00,2.526560726947871149e+00
2.734597682952880859e+00,2.526014748336642857e+00
2.736597061157226562e+00,2.527510825098851388e+00
2.738595962524414062e+00,2.526164356012863710e+00
2.740596532821655273e+00,2.527586523006740027e+00
2.742595911026000977e+00,2.527650896030771310e+00
2.744596719741821289e+00,2.528091374408170555e+00
2.746595382690429688e+00,2.528034749988883778e+00
2.748595952987670898e+00,2.528075877198681543e+00
2.750595569610595703e+00,2.527929249755054730e+00
2.752596139907836914e+00,2.528230849293571669e+00
2.754595518112182617e+00,2.528732124415889349e+00
2.756596326828002930e+00,2.528625432089022684e+00
2.758594751358032227e+00,2.528239789991353792e+00
2.760594367980957031e+00,2.528874579533884503e+00
2.762593984603881836e+00,2.527839246730714695e+00
2.764595270156860352e+00,2.528433505109966450e+00
2.766594648361206055e+00,2.528393569993206302e+00
2.768595218658447266e+00,2.527730170217772798e+00
2.770594835281372070e+00,2.528711262787731062e+00
2.772594451904296875e+00,2.527743879287705386e+00
2.774594306945800781e+00,2.528394762086243919e+00
2.776594400405883789e+00,2.527664009054185090e+00
2.778593540191650391e+00,2.527014914395202982e+00
2.780593872070312500e+00,2.527450624400451762e+00
2.782593011856079102e+00,2.527226510909379886e+00
2.784593343734741211e+00,2.527615133239642820e+00
2.786592960357666016e+00,2.526680532298151594e+00
2.788593053817749023e+00,2.527388039515976903e+00
2.790593624114990234e+00,2.526842656951267418e+00
2.792592763900756836e+00,2.527343932073585098e+00
2.794594764709472656e+00,2.527482810912467404e+00
2.796594381332397461e+00,2.526079121360674140e+00
2.798592567443847656e+00,2.525810900427210459e+00
2.800592660903930664e+00,2.527025643232541530e+00
2.802592277526855469e+00,2.521975341078679822e+00
2.804592609405517578e+00,2.515659036118869540e+00
2.806591749191284180e+00,2.516430320314207325e+00
2.808591842651367188e+00,2.515185775182935402e+00
2.810591220855712891e+00,2.516431512407244941e+00
2.812593221664428711e+00,2.515545787280295542e+00
2.814592599868774414e+00,2.513579429814747357e+00
2.816590547561645508e+00,2.515814008213759667e+00
2.818591117858886719e+00,2.514286340986053858e+00
2.820609092712402344e+00,2.515716852631193934e+00
2.822617292404174805e+00,2.509168089529048018e+00
2.824592113494873047e+00,2.495178281686101229e+00
2.826587915420532227e+00,2.501240074782380418e+00
2.828588247299194336e+00,2.503617108299387439e+00
2.830586910247802734e+00,2.503313720621314076e+00
2.832589149475097656e+00,2.504388988541244032e+00
2.834586858749389648e+00,2.503870428069880916e+00
2.836586713790893555e+00,2.505485714135851083e+00
2.838586568832397461e+00,2.505218089248906210e+00
2.840586900711059570e+00,2.507395447182112491e+00
2.842586278915405273e+00,2.508003414631296835e+00
2.844589471817016602e+00,2.492467462118561627e+00
2.846588850021362305e+00,2.503770292254721141e+00
2.848588705062866211e+00,2.506207526470127789e+00
2.850588083267211914e+00,2.507607639742808203e+00
2.852588415145874023e+00,2.508611382080481178e+00
2.854590654373168945e+00,2.509455979997632369e+00
2.856588125228881836e+00,2.510542572801419681e+00
2.858588457107543945e+00,2.510494889079915026e+00
2.860587835311889648e+00,2.511845530491534362e+00
2.862586498260498047e+00,2.513827385166571560e+00
2.864587545394897461e+00,2.505401671576699130e+00
2.866586685180664062e+00,2.510889471875366041e+00
2.868586540222167969e+00,2.512911261667163387e+00
2.870586395263671875e+00,2.514072956332320530e+00
2.872586250305175781e+00,2.514655889827714930e+00
2.874590158462524414e+00,2.516104878914938059e+00
2.876585960388183594e+00,2.517487110792054228e+00
2.878585577011108398e+00,2.517968716379251237e+00
2.880586385726928711e+00,2.519820632913188252e+00
2.882585287094116211e+00,2.519858779890391975e+00
2.884586811065673828e+00,2.520574035712961791e+00
2.886584758758544922e+00,2.506259978563782909e+00
2.888585090637207031e+00,2.517090739857046788e+00
2.890584707260131836e+00,2.518892588483403916e+00
2.892585277557373047e+00,2.520329060593731629e+00
2.894584655761718750e+00,2.522201838755826930e+00
2.896584749221801758e+00,2.522009911776770696e+00
2.898584127426147461e+00,2.522504630387381486e+00
2.900584697723388672e+00,2.523411217142488727e+00
2.902584314346313477e+00,2.524994912742962061e+00
2.904584407806396484e+00,2.525399628329232815e+00
2.906583786010742188e+00,2.517842354517263903e+00
2.908583879470825195e+00,2.521953883404002728e+00
2.910583019256591797e+00,2.523128095046054842e+00
2.912582635879516602e+00,2.524618807389594100e+00
2.914583206176757812e+00,2.526238265781195924e+00
2.916583776473999023e+00,2.526833716253485296e+00
2.918583393096923828e+00,2.524844709020222400e+00
2.920583248138427734e+00,2.526973191138886410e+00
2.922582626342773438e+00,2.527122798815107263e+00
2.924583911895751953e+00,2.528593841623525851e+00
2.926582574844360352e+00,2.527300420677712101e+00
2.928582191467285156e+00,2.515448035651211001e+00
2.930581569671630859e+00,2.524309459246332654e+00
2.932582139968872070e+00,2.524338665525754255e+00
2.934581279754638672e+00,2.524897161113877520e+00
2.936581611633300781e+00,2.526341381828949739e+00
2.938581228256225586e+00,2.526150646942931122e+00
2.940581321716308594e+00,2.527475062307722897e+00
2.942580699920654297e+00,2.527357045096998878e+00
2.944580554962158203e+00,2.528025809291101655e+00
2.946580410003662109e+00,2.529353800935006280e+00
2.948581218719482422e+00,2.525697055542118097e+00
2.950580358505249023e+00,2.524083557615704354e+00
2.952579736709594727e+00,2.524735632507280503e+00
2.954580068588256836e+00,2.525444927864662237e+00
2.956579685211181641e+00,2.526600066018112489e+00
2.958578824996948242e+00,2.526805106020582503e+00
2.960579395294189453e+00,2.527178231141356424e+00
2.962579250335693359e+00,2.528465095575463284e+00
2.964579820632934570e+00,2.529527250471979460e+00
2.966579675674438477e+00,2.529087964187617832e+00
2.968579053878784180e+00,2.530091110478771999e+00
2.970578193664550781e+00,2.518027724984613247e+00
2.972578763961791992e+00,2.526774111601604478e+00
2.974577426910400391e+00,2.526552382296607835e+00
2.976578712463378906e+00,2.527894679056963856e+00
2.978577136993408203e+00,2.527635398821282298e+00
2.980578184127807617e+00,2.529477778610918381e+00
2.982576847076416016e+00,2.529639307217515398e+00
2.984578132629394531e+00,2.530333701411926928e+00
2.986577033996582031e+00,2.530689541183655411e+00
2.988578081130981445e+00,2.532432381204650529e+00
2.990576982498168945e+00,2.531322542586629698e+00
2.992577075958251953e+00,2.524981799719548281e+00
2.994575738906860352e+00,2.525597515773477131e+00
2.996576309204101562e+00,2.527388039515976903e+00
2.998576402664184570e+00,2.527367177887818617e+00
3.000576257705688477e+00,2.529672685822568656e+00
3.002575635910034180e+00,2.529961172337671815e+00
3.004576206207275391e+00,2.530104223502185778e+00
3.006575584411621094e+00,2.531268898399936962e+00
3.008576393127441406e+00,2.531730238405494493e+00
3.010575056076049805e+00,2.531879250035196538e+00
3.012609481811523438e+00,2.527908984173415252e+00
3.014606714248657227e+00,2.517782749865383085e+00
3.016589641571044922e+00,2.492746411889363856e+00
3.018593072891235352e+00,2.474471625622704618e+00
3.021377563476562500e+00,2.467482384143159901e+00
3.023356199264526367e+00,2.481099066865332770e+00
3.025654554367065430e+00,2.485212383891628463e+00
3.027618646621704102e+00,2.470662888367520349e+00
3.029579162597656250e+00,2.503690422021200845e+00
3.031576395034790039e+00,2.515731753794164138e+00
3.033575057983398438e+00,2.522797289228116302e+00
3.035575628280639648e+00,2.530722919788708669e+00
3.037580728530883789e+00,2.534155551690524977e+00
3.039591312408447266e+00,2.541807596898984389e+00
3.041574716567993164e+00,2.546965187426232013e+00
3.043574810028076172e+00,2.553474015411617337e+00
3.045572519302368164e+00,2.557363218946840711e+00
3.047574043273925781e+00,2.563588328789273341e+00
3.049572706222534180e+00,2.564700551593369404e+00
3.051573276519775391e+00,2.572343060057527886e+00
3.053572177886962891e+00,2.574754068226106973e+00
3.055572748184204102e+00,2.579943845265370239e+00
3.057574987411499023e+00,2.581298062956102424e+00
3.059576034545898438e+00,2.585063884861932504e+00
3.061574697494506836e+00,2.586888979302523150e+00
3.063574552536010742e+00,2.591381381914780402e+00
3.065573692321777344e+00,2.593846630316571034e+00
3.067574262619018555e+00,2.595886897550451433e+00
3.069574117660522461e+00,2.596857857329589958e+00
3.071574211120605469e+00,2.599324893870937014e+00
3.073572635650634766e+00,2.599245023637416718e+00
3.075574398040771484e+00,2.601455760175676257e+00
3.077574968338012695e+00,2.602536988560794295e+00
3.079575061798095703e+00,2.602244925766578287e+00
3.081654310226440430e+00,2.603227806476092976e+00
3.083764791488647461e+00,2.578936526648584415e+00
3.085808515548706055e+00,2.554337686817370390e+00
3.087806224822998047e+00,2.525369229956773598e+00
3.089810609817504883e+00,2.524702849948746053e+00
3.091842651367187500e+00,2.523934545986002309e+00
3.093811988830566406e+00,2.496342360537333604e+00
3.096634149551391602e+00,2.483607826662996398e+00
3.098605871200561523e+00,2.486724553909844815e+00
3.100594758987426758e+00,2.480652031976226635e+00
3.102587938308715820e+00,2.473585900495755663e+00
3.104669332504272461e+00,2.468515332760254477e+00
3.106598377227783203e+00,2.455902988422273392e+00
3.108592510223388672e+00,2.456377441451244703e+00
3.110628128051757812e+00,2.451989943026297247e+00
3.112648725509643555e+00,2.444004111767305254e+00
3.114693403244018555e+00,2.437378458664233527e+00
3.116706132888793945e+00,2.440781884286628234e+00
3.118739128112792969e+00,2.432486704884374795e+00
3.120712995529174805e+00,2.412461926038494742e+00
3.122682809829711914e+00,2.424912741769879254e+00
3.124691486358642578e+00,2.426473191556119069e+00
3.126646757125854492e+00,2.424612334324399932e+00
3.128661632537841797e+00,2.423284342680495307e+00
3.130651235580444336e+00,2.419780185196421574e+00
3.132582187652587891e+00,2.414580275366339013e+00
3.134566545486450195e+00,2.458011204959297924e+00
3.136572837829589844e+00,2.470596131157413833e+00
3.138577222824096680e+00,2.473975714919056212e+00
3.140567779541015625e+00,2.483821211316729727e+00
3.142565727233886719e+00,2.493386565850563841e+00
3.144568204879760742e+00,2.502941191547058963e+00
3.146564006805419922e+00,2.507515848578911744e+00
3.148565530776977539e+00,2.516779007527710110e+00
3.150563240051269531e+00,2.523278298768794503e+00
3.152565002441406250e+00,2.531814280964646446e+00
3.154563665390014648e+00,2.537787859176142025e+00
3.156564235687255859e+00,2.544600670886119520e+00
3.158568620681762695e+00,2.550911015380742164e+00
3.160569667816162109e+00,2.557160563130445929e+00
3.162565946578979492e+00,2.562730021802189562e+00
3.164566040039062500e+00,2.566826649525958182e+00
3.166565895080566406e+00,2.572140404241133105e+00
3.168566226959228516e+00,2.577602574539491265e+00
3.170565605163574219e+00,2.581783840868931090e+00
3.172564744949340820e+00,2.586987923024645308e+00
3.174565315246582031e+00,2.589844177942774106e+00
3.176565170288085938e+00,2.593243431239537156e+00
3.178570747375488281e+00,2.596313666857918090e+00
3.180566787719726562e+00,2.598313998975038341e+00
3.182564258575439453e+00,2.600378108069671068e+00
3.184563398361206055e+00,2.602778983447430416e+00
3.186563491821289062e+00,2.605744910925019919e+00
3.188564062118530273e+00,2.607152176755926032e+00
3.190562963485717773e+00,2.608836604218077948e+00
3.192563533782958984e+00,2.610147310512937580e+00
3.194562435150146484e+00,2.610886408196259723e+00
3.196563243865966797e+00,2.611522389831828050e+00
3.198567390441894531e+00,2.612541033332471230e+00
3.200564861297607422e+00,2.611821605184269757e+00
3.202562332153320312e+00,2.612102343094628409e+00
3.204562902450561523e+00,2.612401558447070116e+00
3.206562042236328125e+00,2.612573815891005680e+00
3.208561420440673828e+00,2.611170722385731224e+00
3.210561037063598633e+00,2.611350728434411295e+00
3.212574005126953125e+00,2.610367847724896606e+00
3.214562654495239258e+00,2.601943922274580157e+00
3.216561317443847656e+00,2.606975746986358811e+00
3.218564987182617188e+00,2.605107737196413975e+00
3.220561981201171875e+00,2.603278470430191671e+00
3.222559690475463867e+00,2.602852297169243823e+00
3.224560022354125977e+00,2.602058959252710135e+00
3.226558923721313477e+00,2.599624705269897529e+00
3.228562116622924805e+00,2.598339032928828285e+00
3.230561494827270508e+00,2.596693944536917709e+00
3.232561349868774414e+00,2.595265221031334502e+00
3.234560966491699219e+00,2.593642782407138636e+00
3.236560583114624023e+00,2.591371249123960663e+00
3.238564252853393555e+00,2.589789937709562562e+00
3.240562438964843750e+00,2.587705563033290357e+00
3.242561340332031250e+00,2.585863183243654273e+00
3.244560480117797852e+00,2.584395120667829726e+00
3.246560335159301758e+00,2.582089016686560878e+00
3.248560190200805664e+00,2.579945037358407856e+00
3.250559568405151367e+00,2.577870795472954946e+00
3.252559661865234375e+00,2.575741717307772127e+00
3.254558801651000977e+00,2.573868939145676826e+00
3.256559133529663086e+00,2.572440811686612427e+00
3.258561849594116211e+00,2.569943376772806154e+00
3.260559797286987305e+00,2.566713996733903436e+00
3.262558937072753906e+00,2.565339513461531773e+00
3.264558792114257812e+00,2.563526339951317290e+00
3.266558170318603516e+00,2.561479516205730000e+00
3.268558263778686523e+00,2.559825487116037301e+00
3.270557403564453125e+00,2.557102150571602728e+00
3.272557735443115234e+00,2.555826611021353223e+00
3.274557113647460938e+00,2.554207748676270207e+00
3.276557207107543945e+00,2.552469080980906746e+00
3.278559446334838867e+00,2.550490206538463589e+00
3.280558109283447266e+00,2.548598354887766426e+00
3.282556772232055664e+00,2.547289436732463663e+00
3.284556865692138672e+00,2.546741073935159694e+00
3.286556482315063477e+00,2.543465798314308746e+00
3.288556337356567383e+00,2.542333905975092012e+00
3.290556430816650391e+00,2.540915911306847352e+00
3.292556047439575195e+00,2.539376323148765824e+00
3.294555425643920898e+00,2.537706796849584112e+00
3.296555519104003906e+00,2.536217872645601279e+00
3.298558235168457031e+00,2.534699146115678037e+00
3.300556182861328125e+00,2.532780472371634506e+00
3.302554368972778320e+00,2.532506290972982743e+00
3.304555416107177734e+00,2.531159225840476257e+00
3.306555747985839844e+00,2.530072036990170137e+00
3.308555603027343750e+00,2.529740635125712789e+00
3.310554981231689453e+00,2.527476254400760514e+00
3.312554597854614258e+00,2.527014914395202982e+00
3.314554214477539062e+00,2.525753083914886066e+00
3.316563367843627930e+00,2.524487677155456300e+00
3.318557024002075195e+00,2.525001469254668951e+00
3.320554256439208984e+00,2.522566619225337536e+00
3.322553396224975586e+00,2.522371115967168453e+00
3.324553728103637695e+00,2.522465887363658954e+00
3.326553106307983398e+00,2.521183791301702559e+00
3.328553438186645508e+00,2.521572413631965492e+00
3.330553054809570312e+00,2.521255316883959541e+00
3.332553386688232422e+00,2.520919146647351727e+00
3.334555387496948242e+00,2.520070972451087687e+00
3.336551904678344727e+00,2.519736590354036299e+00
3.338554382324218750e+00,2.519188823603251581e+00
3.340552806854248047e+00,2.518087329636494065e+00
3.342551946640014648e+00,2.518011035682086618e+00
3.344551563262939453e+00,2.517567577072093332e+00
3.346552133560180664e+00,2.517656984049914559e+00
3.348551988601684570e+00,2.518027128938094439e+00
3.350551366806030273e+00,2.517533602420521266e+00
3.352551460266113281e+00,2.517780365679307852e+00
3.354551076889038086e+00,2.518124284520660172e+00
3.356550693511962891e+00,2.517836990098594629e+00
3.358552932739257812e+00,2.518452706152523479e+00
3.360551118850708008e+00,2.516264023335459843e+00
3.362550258636474609e+00,2.517898382890031872e+00
3.364550352096557617e+00,2.518225612428857563e+00
3.366550445556640625e+00,2.518816294528996469e+00
3.368550062179565430e+00,2.518883051739102985e+00
3.370550394058227539e+00,2.519198360347552512e+00
3.372550487518310547e+00,2.517194451951319412e+00
3.374549388885498047e+00,2.519644799190139839e+00
3.376549720764160156e+00,2.519964876170739831e+00
3.378551483154296875e+00,2.519944014542581545e+00
3.380549669265747070e+00,2.518928351274532407e+00
3.382548809051513672e+00,2.520565095015179669e+00
3.384548664093017578e+00,2.520897092926155825e+00
3.386548519134521484e+00,2.521190943859928257e+00
3.388548135757446289e+00,2.521720233168629921e+00
3.390547990798950195e+00,2.521756592006277220e+00
3.392548084259033203e+00,2.522670331319610160e+00
3.394547700881958008e+00,2.522647681551895449e+00
3.396547317504882812e+00,2.523877921566715532e+00
3.398550033569335938e+00,2.523812356449646632e+00
3.400547504425048828e+00,2.523511949004167310e+00
3.402546644210815430e+00,2.524860802276230221e+00
3.404552221298217773e+00,2.525241079955229839e+00
3.406957626342773438e+00,2.524645629482940468e+00
3.409572839736938477e+00,2.481804189897082846e+00
3.411588191986083984e+00,2.505845130186692415e+00
3.413691520690917969e+00,2.482704816187002006e+00
3.415578365325927734e+00,2.482577858278495864e+00
3.417544364929199219e+00,2.498920857777697790e+00
3.419552087783813477e+00,2.502670586427520050e+00
3.421543121337890625e+00,2.503773868533833991e+00
3.423543930053710938e+00,2.506674826940873402e+00
3.425541162490844727e+00,2.507778705093706151e+00
3.427544116973876953e+00,2.510803045130138855e+00
3.429544448852539062e+00,2.511974276539596929e+00
3.431544303894042969e+00,2.514787616108371537e+00
3.433543443679809570e+00,2.515589298676168539e+00
3.435544252395629883e+00,2.518194618009879537e+00
3.437542438507080078e+00,2.520382704780424366e+00
3.439548969268798828e+00,2.521425190141819872e+00
3.442241191864013672e+00,2.522518935503832882e+00
3.444135665893554688e+00,2.497433125666752574e+00
3.446541070938110352e+00,2.515416445185714167e+00
3.448541641235351562e+00,2.518745364993258296e+00
3.450540065765380859e+00,2.521877589449595281e+00
3.452541351318359375e+00,2.523488107143414982e+00
3.454540014266967773e+00,2.524838152508515510e+00
3.456544399261474609e+00,2.527560893006431275e+00
3.458548784255981445e+00,2.528415027667883397e+00
3.460543870925903320e+00,2.528738084881077430e+00
3.462542295455932617e+00,2.530810538626973472e+00
3.464541196823120117e+00,2.532679144463437115e+00
3.466540813446044922e+00,2.534087006340862036e+00
3.468541145324707031e+00,2.534366552158183072e+00
3.470540523529052734e+00,2.536487881718621384e+00
3.472540140151977539e+00,2.536777560326762160e+00
3.474540472030639648e+00,2.538825576165387066e+00
3.476539850234985352e+00,2.539412681986413123e+00
3.478543043136596680e+00,2.540743057816392980e+00
3.480541229248046875e+00,2.540459339673440287e+00
3.482540369033813477e+00,2.541430895499097620e+00
3.484539270401000977e+00,2.542199199461841364e+00
3.486539363861083984e+00,2.544011776925537038e+00
3.488539218902587891e+00,2.544825976470229012e+00
3.490538597106933594e+00,2.545590704153859907e+00
3.492538928985595703e+00,2.545216982986567178e+00
3.494538784027099609e+00,2.545752828806975732e+00
3.496538162231445312e+00,2.546859091145883713e+00
3.498541116714477539e+00,2.547402089524518409e+00
3.500538825988769531e+00,2.546528881374463982e+00
3.502538204193115234e+00,2.546877568587967211e+00
3.504538059234619141e+00,2.547746604412389537e+00
3.506537437438964844e+00,2.547155922312250631e+00
3.508537292480468750e+00,2.548213904883135150e+00
3.510536909103393555e+00,2.549119895591723584e+00
3.512537240982055664e+00,2.548157876510367181e+00
3.514536380767822266e+00,2.548824852564913535e+00
3.516536474227905273e+00,2.548146551626509826e+00
3.518538951873779297e+00,2.547927206507588416e+00
3.520537137985229492e+00,2.548374241396694551e+00
3.522536277770996094e+00,2.548185294650232358e+00
3.524536371231079102e+00,2.549329107919825255e+00
3.526536226272583008e+00,2.548258012325526956e+00
3.528536319732666016e+00,2.548610275818142590e+00
3.530535459518432617e+00,2.548432653955537752e+00
3.532535076141357422e+00,2.548005288601552287e+00
3.534535169601440430e+00,2.547949856275303127e+00
3.536535263061523438e+00,2.547114795102452867e+00
3.538551807403564453e+00,2.547323411384035730e+00
3.540536165237426758e+00,2.547993367671176124e+00
3.542534589767456055e+00,2.545720046248441282e+00
3.544534921646118164e+00,2.546075886020169765e+00
3.546534776687622070e+00,2.544960682983479661e+00
3.548534154891967773e+00,2.545361226244118757e+00
3.550533294677734375e+00,2.543477719244684909e+00
3.552534103393554688e+00,2.543913429249933689e+00
3.554533720016479492e+00,2.542616432025007089e+00
3.556532621383666992e+00,2.542202179694435404e+00
3.558533430099487305e+00,2.541940515272678613e+00
3.560537576675415039e+00,2.541284268055470807e+00
3.562534093856811523e+00,2.540393774556371387e+00
3.564535140991210938e+00,2.540934388748930406e+00
3.566533088684082031e+00,2.539745871990426895e+00
3.568534612655639648e+00,2.539213006402612383e+00
3.570532798767089844e+00,2.538889949189418349e+00
3.572532892227172852e+00,2.538332645694332701e+00
3.574531793594360352e+00,2.537904684293828428e+00
3.576531887054443359e+00,2.537544076149949479e+00
3.578530788421630859e+00,2.537030284050736828e+00
3.580541372299194336e+00,2.536209527994337964e+00
3.582532405853271484e+00,2.536589209626818775e+00
3.584532022476196289e+00,2.536456887299643359e+00
3.586543321609497070e+00,2.536199395203518225e+00
3.588892698287963867e+00,2.530925575605103450e+00
3.591539859771728516e+00,2.510949672573765667e+00
3.593527793884277344e+00,2.522380056664950576e+00
3.595530509948730469e+00,2.521934809915400866e+00
3.597528934478759766e+00,2.523550095981371033e+00
3.599535942077636719e+00,2.523267569931455956e+00
3.601531028747558594e+00,2.521895470845159526e+00
3.603530883789062500e+00,2.523315849699479418e+00
3.605529308319091797e+00,2.523535194818400829e+00
3.607531070709228516e+00,2.524111571802088339e+00
3.609528779983520508e+00,2.523636522726598219e+00
3.611530542373657227e+00,2.524994912742962061e+00
3.613541126251220703e+00,2.525834146241443978e+00
3.615533351898193359e+00,2.519644203143621031e+00
3.617526769638061523e+00,2.520877423391035155e+00
3.619532585144042969e+00,2.521668377121493609e+00
3.621529340744018555e+00,2.522340121548190428e+00
3.623528718948364258e+00,2.523752751797765814e+00
3.625526666641235352e+00,2.522910538066689856e+00
3.627527713775634766e+00,2.524677815994956109e+00
3.629526615142822266e+00,2.524144950407141597e+00
3.631530284881591797e+00,2.525248828559974346e+00
3.633530616760253906e+00,2.525096836697678260e+00
3.635529518127441406e+00,2.526284161363144154e+00
3.637527227401733398e+00,2.526750865787370959e+00
3.639532804489135742e+00,2.525707188332937836e+00
3.641529083251953125e+00,2.526347342294137821e+00
3.643528223037719727e+00,2.527920309057272608e+00
3.645527362823486328e+00,2.528572383948848756e+00
3.647528171539306641e+00,2.529017034651879658e+00
3.649526596069335938e+00,2.528813782788966069e+00
3.651528120040893555e+00,2.529481950936550039e+00
3.653526306152343750e+00,2.529901567685790997e+00
3.655527353286743164e+00,2.530374828621724692e+00
3.657531738281250000e+00,2.530663911183346659e+00
3.659529924392700195e+00,2.530616823508360813e+00
3.661526441574096680e+00,2.528496686040960117e+00
3.663526535034179688e+00,2.530507150948900108e+00
3.665524721145629883e+00,2.531535927240363026e+00
3.667525768280029297e+00,2.531817261197240487e+00
3.669524669647216797e+00,2.531683746777027455e+00
3.671525716781616211e+00,2.532767359348220726e+00
3.674782276153564453e+00,2.532406751204341777e+00
3.676682949066162109e+00,2.485626040175681339e+00
3.678549528121948242e+00,2.513227762368650531e+00
3.680523872375488281e+00,2.521844210844542022e+00
3.682522058486938477e+00,2.522237601546955421e+00
3.684522628784179688e+00,2.523288431559614242e+00
3.686520576477050781e+00,2.523682418308546449e+00
3.688526868820190430e+00,2.524826827624658154e+00
3.690524101257324219e+00,2.524913850416404149e+00
3.692524194717407227e+00,2.526853981835124774e+00
3.694521903991699219e+00,2.527833882312045422e+00
3.696522712707519531e+00,2.528255883247361613e+00
3.698521375656127930e+00,2.527858916265835365e+00
3.700521230697631836e+00,2.529035512093962712e+00
3.702521085739135742e+00,2.529201213026191386e+00
3.704521417617797852e+00,2.531337443749599903e+00
3.706520557403564453e+00,2.531290952121132865e+00
3.708520889282226562e+00,2.531578246543198407e+00
3.710520267486572266e+00,2.531766001196622984e+00
3.712524175643920898e+00,2.532618943765037489e+00
3.714523077011108398e+00,2.532517019810321290e+00
3.716522932052612305e+00,2.533319298424637100e+00
3.718522548675537109e+00,2.533929650059896677e+00
3.720522403717041016e+00,2.533418242146759258e+00
3.722521781921386719e+00,2.534187738202540618e+00
3.724522113800048828e+00,2.535082404027271696e+00
3.726521730422973633e+00,2.535604540777747662e+00
3.728521823883056641e+00,2.535772029849532760e+00
3.730521440505981445e+00,2.536468808230019523e+00
3.732522249221801758e+00,2.535946671479543557e+00
3.734521627426147461e+00,2.537362878008231792e+00
3.736521959304809570e+00,2.536441390090154346e+00
3.738520860671997070e+00,2.537153069633611313e+00
3.740520238876342773e+00,2.537819449641638858e+00
3.742520093917846680e+00,2.537736003129005713e+00
3.744520187377929688e+00,2.538299267089279443e+00
3.746519804000854492e+00,2.538342182438633632e+00
3.748519420623779297e+00,2.539626066640146451e+00
3.750519037246704102e+00,2.539842431526473820e+00
3.752564668655395508e+00,2.539870445712857805e+00
3.754550218582153320e+00,2.509026826504090479e+00
3.756527900695800781e+00,2.512767614456130616e+00
3.758519172668457031e+00,2.529124323025265131e+00
3.760519266128540039e+00,2.528581324646630879e+00
3.762519121170043945e+00,2.530178729317036801e+00
3.764518976211547852e+00,2.531055513746203633e+00
3.766519546508789062e+00,2.531264726074305305e+00
3.768518924713134766e+00,2.532274428877166361e+00
3.770517826080322266e+00,2.533663217265989420e+00
3.772518634796142578e+00,2.533659044940357763e+00
3.774517297744750977e+00,2.533734742848246402e+00
3.776518583297729492e+00,2.534011904479492205e+00
3.778517961502075195e+00,2.532586757253021847e+00
3.780518293380737305e+00,2.531706396544742166e+00
3.782517671585083008e+00,2.533092204700971184e+00
3.784517049789428711e+00,2.533436123542323504e+00
3.786516189575195312e+00,2.534249130993977861e+00
3.788516521453857422e+00,2.534974519607367416e+00
3.790516614913940430e+00,2.535856668455203522e+00
3.792516708374023438e+00,2.536057536132041879e+00
3.794524431228637695e+00,2.536778752419799776e+00
3.796516180038452148e+00,2.535509173334738353e+00
3.798516035079956055e+00,2.536989752887457872e+00
3.800516366958618164e+00,2.536304299390828465e+00
3.802515268325805664e+00,2.537142936842791574e+00
3.804515838623046875e+00,2.537728254524261207e+00
3.806515455245971680e+00,2.538241450576955049e+00
3.808514356613159180e+00,2.538472716626252623e+00
3.810514926910400391e+00,2.537864153130549472e+00
3.812515020370483398e+00,2.538245622902586707e+00
3.814517974853515625e+00,2.538802330351153547e+00
3.816516399383544922e+00,2.536318008460761053e+00
3.818521499633789062e+00,2.536810342885296610e+00
3.820515871047973633e+00,2.535234395889567782e+00
3.822520494461059570e+00,2.534517947973960350e+00
3.824514865875244141e+00,2.536362115903152858e+00
3.826514005661010742e+00,2.535866205199504453e+00
3.828514099121093750e+00,2.536697690093241864e+00
3.830513715744018555e+00,2.535974089619408733e+00
3.832513332366943359e+00,2.535880510315955849e+00
3.834513425827026367e+00,2.536229793575977443e+00
3.836513280868530273e+00,2.535745207756186392e+00
3.838513135910034180e+00,2.536306087530384890e+00
3.840512514114379883e+00,2.536266152413624742e+00
3.842512845993041992e+00,2.536956970328923422e+00
3.844512462615966797e+00,2.536281649623113754e+00
3.846512079238891602e+00,2.536528412881900341e+00
3.848510742187500000e+00,2.537103001726031426e+00
3.850509405136108398e+00,2.537079159865279099e+00
3.852515459060668945e+00,2.538121049180155797e+00
3.854511737823486328e+00,2.536942069165953217e+00
3.856511354446411133e+00,2.537370626612976299e+00
3.858510494232177734e+00,2.537272874983891757e+00
3.860510349273681641e+00,2.536933724514689903e+00
3.862510681152343750e+00,2.537294928705087660e+00
3.864511251449584961e+00,2.536877100095403126e+00
3.866510868072509766e+00,2.537104193819069042e+00
3.868510723114013672e+00,2.537017767073841856e+00
3.870510101318359375e+00,2.536741797535633669e+00
3.872509717941284180e+00,2.537028495911180404e+00
3.874509096145629883e+00,2.536275093111406864e+00
3.876509666442871094e+00,2.537152473587092505e+00
3.878509044647216797e+00,2.536700074279317096e+00
3.880509138107299805e+00,2.537434999637007582e+00
3.882508993148803711e+00,2.537013594748210199e+00
3.884509325027465820e+00,2.536753718466009833e+00
3.886508226394653320e+00,2.537128035679821370e+00
3.888509273529052734e+00,2.536853258234650799e+00
3.890508174896240234e+00,2.537466590102504416e+00
3.892507791519165039e+00,2.537287776146861962e+00
3.894508600234985352e+00,2.537101809632993810e+00
3.896507978439331055e+00,2.538144294994389316e+00
3.898507833480834961e+00,2.538106744063704401e+00
3.900507688522338867e+00,2.538737957327122263e+00
3.902507066726684570e+00,2.537334267775329000e+00
3.904507637023925781e+00,2.538357679648122645e+00
3.906507492065429688e+00,2.538498346626561375e+00
3.908507108688354492e+00,2.537474934753767730e+00
3.910507202148437500e+00,2.538056080109605706e+00
3.912506818771362305e+00,2.538702194535993772e+00
3.914505243301391602e+00,2.537815277316007201e+00
3.916506528854370117e+00,2.538351719182934563e+00
3.918506145477294922e+00,2.538038794760560268e+00
3.920505523681640625e+00,2.538111512435854866e+00
3.922506332397460938e+00,2.538431589416454859e+00
3.924505949020385742e+00,2.537685339174907018e+00
3.926505804061889648e+00,2.538122837319712222e+00
3.928506135940551758e+00,2.537945811503626192e+00
3.930505514144897461e+00,2.538550202673697687e+00
3.932505846023559570e+00,2.539158170122882030e+00
3.934505462646484375e+00,2.539550964778776621e+00
3.936505079269409180e+00,2.540252511531413848e+00
3.938504219055175781e+00,2.539775674316367304e+00
3.940504550933837891e+00,2.539972965714092812e+00
3.942504167556762695e+00,2.539193932914010521e+00
3.944503068923950195e+00,2.540068333157102121e+00
3.946500778198242188e+00,2.540077273854884243e+00
3.948510408401489258e+00,2.539701168501516282e+00
3.950504541397094727e+00,2.535912696827971491e+00
3.952503442764282227e+00,2.538355295462047412e+00
3.954504251480102539e+00,2.539143865006430634e+00
3.956502676010131836e+00,2.539633219198372149e+00
3.958503246307373047e+00,2.538556759185404577e+00
3.960503101348876953e+00,2.540262644322233587e+00
3.962502241134643555e+00,2.538993065237172164e+00
3.964502573013305664e+00,2.539065782912466762e+00
3.966502189636230469e+00,2.539026443842225422e+00
3.968501806259155273e+00,2.538825576165387066e+00
3.970509529113769531e+00,2.540413444091492057e+00
3.972504377365112305e+00,2.537268702658260100e+00
3.974501848220825195e+00,2.539016907097924491e+00
3.976501226425170898e+00,2.539308373845621691e+00
3.978500127792358398e+00,2.539435331754127834e+00
3.980499982833862305e+00,2.539421026637676437e+00
3.982499122619628906e+00,2.538690273605617609e+00
3.984499692916870117e+00,2.539560501523077551e+00
3.986499309539794922e+00,2.539556925243964702e+00
3.988499641418457031e+00,2.539290492450057446e+00
3.990499258041381836e+00,2.539717261757524103e+00
3.992499589920043945e+00,2.539911572922655569e+00
3.994499206542968750e+00,2.539159958262438455e+00
3.996498823165893555e+00,2.539131348029535662e+00
3.998499155044555664e+00,2.539179627797559125e+00
4.000498056411743164e+00,2.539591495942055577e+00
4.002498149871826172e+00,2.539533083383212375e+00
4.004497766494750977e+00,2.539506261289866007e+00
4.006498098373413086e+00,2.538639013605000105e+00
4.008497476577758789e+00,2.539231483844695436e+00
4.010497570037841797e+00,2.538944785469148702e+00
4.012497663497924805e+00,2.539249365240259682e+00
4.014498949050903320e+00,2.539377515241803440e+00
4.016498327255249023e+00,2.533857528431120887e+00
4.018497467041015625e+00,2.536956374282404614e+00
4.020496606826782227e+00,2.537451092893015403e+00
4.022496223449707031e+00,2.536741797535633669e+00
4.024514913558959961e+00,2.537094657074768111e+00
4.026496410369873047e+00,2.534173433086089222e+00
4.028496742248535156e+00,2.535248104959500370e+00
4.030495882034301758e+00,2.534721199836873939e+00
4.032495498657226562e+00,2.535624210312868332e+00
4.034495830535888672e+00,2.535233203796530166e+00
4.036496162414550781e+00,2.535524074497708558e+00
4.038495779037475586e+00,2.536377613112641871e+00
4.040495872497558594e+00,2.535705272639426244e+00
4.042494773864746094e+00,2.535738055197960694e+00
4.044494390487670898e+00,2.535935346595686202e+00
4.046494722366333008e+00,2.536275093111406864e+00
4.048497676849365234e+00,2.536933724514689903e+00
4.050495147705078125e+00,2.535909716595377450e+00
4.052494287490844727e+00,2.536750738233415792e+00
4.054494142532348633e+00,2.536369864507897365e+00
4.056494712829589844e+00,2.536659543116038140e+00
4.058493375778198242e+00,2.536259595901917852e+00
4.060493946075439453e+00,2.535589043568258649e+00
4.062493085861206055e+00,2.536154095668088804e+00
4.064493656158447266e+00,2.535617057754642634e+00
4.066492795944213867e+00,2.537057106144083196e+00
4.068493366241455078e+00,2.536872927769771469e+00
4.070492744445800781e+00,2.536722724047031807e+00
4.072492599487304688e+00,2.537064854748827702e+00
4.074492454528808594e+00,2.537169758936137942e+00
4.076493024826049805e+00,2.537321750798434028e+00
4.078492403030395508e+00,2.537082736144391948e+00
4.080492258071899414e+00,2.537226979401943527e+00
4.082491636276245117e+00,2.537459437544278718e+00
4.084492206573486328e+00,2.537462417776872758e+00
4.086491107940673828e+00,2.537092868935211687e+00
4.088491678237915039e+00,2.538256947786444062e+00
4.090490818023681641e+00,2.537462417776872758e+00
4.092491149902343750e+00,2.537715141500847427e+00
4.094491004943847656e+00,2.536899153816599028e+00
4.096490621566772461e+00,2.538693849884730458e+00
4.098490715026855469e+00,2.538479273137959513e+00
4.100490570068359375e+00,2.538022105458033639e+00
4.102490663528442383e+00,2.537920181503317441e+00
4.104490995407104492e+00,2.538094823133328237e+00
4.106489896774291992e+00,2.538384501741469013e+00
4.108489751815795898e+00,2.538436953835124132e+00
4.110490083694458008e+00,2.538691465698655225e+00
4.112489700317382812e+00,2.538507287324343498e+00
4.114489793777465820e+00,2.537831370572015022e+00
4.116489410400390625e+00,2.538681928954354294e+00
4.118488788604736328e+00,2.538690273605617609e+00
4.120489358901977539e+00,2.539080684075436967e+00
4.122488975524902344e+00,2.538168136855141643e+00
4.124488830566406250e+00,2.537552420801212794e+00
4.126488208770751953e+00,2.536896173584004988e+00
4.128488063812255859e+00,2.537212078238973323e+00
4.130487680435180664e+00,2.537929718247618371e+00
4.132549285888671875e+00,2.538069193133019485e+00
4.134558200836181641e+00,2.493402659106571662e+00
4.136559009552001953e+00,2.484461365277930156e+00
4.138561964035034180e+00,2.473275360259456601e+00
4.140629529953002930e+00,2.463226611998869497e+00
4.142575025558471680e+00,2.449945503466785190e+00
4.144716501235961914e+00,2.442525916400660968e+00
4.146639347076416016e+00,2.439521245899348934e+00
4.148519515991210938e+00,2.457856232864407797e+00
4.150484800338745117e+00,2.476521429600885948e+00
4.152486085891723633e+00,2.482145724552359933e+00
4.154483556747436523e+00,2.485896645295220253e+00
4.156484127044677734e+00,2.490315734185664098e+00
4.158483028411865234e+00,2.493328153291720639e+00
4.160487651824951172e+00,2.497920095672618856e+00
4.162483930587768555e+00,2.495051919824113895e+00
4.164483785629272461e+00,2.502553165263314838e+00
4.166482686996459961e+00,2.504755557150311063e+00
4.168486118316650391e+00,2.509104312551535543e+00
4.170481920242309570e+00,2.509773672792157129e+00
4.172482967376708984e+00,2.514449061685688491e+00
4.174481868743896484e+00,2.517176570555755166e+00
4.176481962203979492e+00,2.520855965716358060e+00
4.178481817245483398e+00,2.522918286671434362e+00
4.180482625961303711e+00,2.526372376247927765e+00
4.182481765747070312e+00,2.528721991625069609e+00
4.184481620788574219e+00,2.532224360969586474e+00
4.186481237411499023e+00,2.534119192852877678e+00
4.188485860824584961e+00,2.536773984047649311e+00
4.190484285354614258e+00,2.539272611054493201e+00
4.192484140396118164e+00,2.540881936655275286e+00
4.194483995437622070e+00,2.544066613205267391e+00
4.196483373641967773e+00,2.546083634624914271e+00
4.198481798171997070e+00,2.547536796037769058e+00
4.200482130050659180e+00,2.549788659785826361e+00
4.202482700347900391e+00,2.551678127250448291e+00
4.204482793807983398e+00,2.554288811002828119e+00
4.206482410430908203e+00,2.554792470311221031e+00
4.208482503890991211e+00,2.556209272886428074e+00
4.210481882095336914e+00,2.558775253149897289e+00
4.212481737136840820e+00,2.559975094792258155e+00
4.214484453201293945e+00,2.560928769222351242e+00
4.216483354568481445e+00,2.556659884054647058e+00
4.218480825424194336e+00,2.560682005963564656e+00
4.220480918884277344e+00,2.562002249002724774e+00
4.222480773925781250e+00,2.561790652488547870e+00
4.224481105804443359e+00,2.563209839249830146e+00
4.226480722427368164e+00,2.562558360404772806e+00
4.228480577468872070e+00,2.562799163198371311e+00
4.230480194091796875e+00,2.563970990654348192e+00
4.232480525970458984e+00,2.564133115307464017e+00
4.234480142593383789e+00,2.565071292528068092e+00
4.236479759216308594e+00,2.564524121823802183e+00
4.238479375839233398e+00,2.564838238339214094e+00
4.240479230880737305e+00,2.565582104394686702e+00
4.242479085922241211e+00,2.565260239274530285e+00
4.244479179382324219e+00,2.565251894623266971e+00
4.246478796005249023e+00,2.564364977403280399e+00
4.248478651046752930e+00,2.564854927641740723e+00
4.250478982925415039e+00,2.563870258792669610e+00
4.252479076385498047e+00,2.564937778107855060e+00
4.254481554031372070e+00,2.562782473895844682e+00
4.256477832794189453e+00,2.563624091580401831e+00
4.258480548858642578e+00,2.564016886236296422e+00
4.260528564453125000e+00,2.561835952023977292e+00
4.262485504150390625e+00,2.544616764142127341e+00
4.264478206634521484e+00,2.550176686069570486e+00
4.266477584838867188e+00,2.550702995145678109e+00
4.268477916717529297e+00,2.550600475144443102e+00
4.270477771759033203e+00,2.550860947473162277e+00
4.272477626800537109e+00,2.550964063520916092e+00
4.274477005004882812e+00,2.551184600732875118e+00
4.276476860046386719e+00,2.550634449796015168e+00
4.278476715087890625e+00,2.551044529800955196e+00
4.280476808547973633e+00,2.549900120484843491e+00
4.282477378845214844e+00,2.548939293496524705e+00
4.284475326538085938e+00,2.548227613953067738e+00
4.286475419998168945e+00,2.548138803021765320e+00
4.288475513458251953e+00,2.548625773027631602e+00
4.290475130081176758e+00,2.546792929982296005e+00
4.292475223541259766e+00,2.547551697200739262e+00
4.294474840164184570e+00,2.546010916949619673e+00
4.296474695205688477e+00,2.546767299981987254e+00
4.298475265502929688e+00,2.546232646254616316e+00
4.300475358963012695e+00,2.545670574387380203e+00
4.302474021911621094e+00,2.543745940178148590e+00
4.304474830627441406e+00,2.544231122044458449e+00
4.306473970413208008e+00,2.544113700880253237e+00
4.308473825454711914e+00,2.543914621342971305e+00
4.310473680496215820e+00,2.543215458776409310e+00
4.312473297119140625e+00,2.543011014820458104e+00
4.314473390579223633e+00,2.542626564815826828e+00
4.316473722457885742e+00,2.542990153192299818e+00
4.318472862243652344e+00,2.541645472245868564e+00
4.320473670959472656e+00,2.541957204575205242e+00
4.322472572326660156e+00,2.540345494788347924e+00
4.324472665786743164e+00,2.540905778516027613e+00
4.326471805572509766e+00,2.541418378522202648e+00
4.328472137451171875e+00,2.539919917573918884e+00
4.330471515655517578e+00,2.538363044066791918e+00
4.332472085952758789e+00,2.538894121515050006e+00
4.334471702575683594e+00,2.537337248007923041e+00
4.336471557617187500e+00,2.538190786622856354e+00
4.338471412658691406e+00,2.538121049180155797e+00
4.340471744537353516e+00,2.537401621031954324e+00
4.342470645904541016e+00,2.535100881469354750e+00
4.344480037689208984e+00,2.535515729846445243e+00
4.346471309661865234e+00,2.536229197529458634e+00
4.348470449447631836e+00,2.535754744500487323e+00
4.350470066070556641e+00,2.535513941706888819e+00
4.352470159530639648e+00,2.535208169842740222e+00
4.354469537734985352e+00,2.535670701941335370e+00
4.356470108032226562e+00,2.535481159148354369e+00
4.358469963073730469e+00,2.534406487274943220e+00
4.360468626022338867e+00,2.535656992871402782e+00
4.362466573715209961e+00,2.534040514712394998e+00
4.364473342895507812e+00,2.534482185182831859e+00
4.366469144821166992e+00,2.533800904011834110e+00
4.368469238281250000e+00,2.533094588887046417e+00
4.370468616485595703e+00,2.533948127501979730e+00
4.372468709945678711e+00,2.532244030504707144e+00
4.374468088150024414e+00,2.533414665867646409e+00
4.376467704772949219e+00,2.533173863074047905e+00
4.378468036651611328e+00,2.532914582838366346e+00
4.380467653274536133e+00,2.532562915392269520e+00
4.382467508316040039e+00,2.531567517705859860e+00
4.384467363357543945e+00,2.532449070507177158e+00
4.386467218399047852e+00,2.532556954927081438e+00
4.388467550277709961e+00,2.531974617478205847e+00
4.390466451644897461e+00,2.532127801433539549e+00
4.392466068267822266e+00,2.531639043288116842e+00
4.394465684890747070e+00,2.531818453290278104e+00
4.396466732025146484e+00,2.532306615389182003e+00
4.398466348648071289e+00,2.531948987477897095e+00
4.400466442108154297e+00,2.532471720274891869e+00
4.402466297149658203e+00,2.530909482349095629e+00
4.404465675354003906e+00,2.531827393988060226e+00
4.406465291976928711e+00,2.530790869091852802e+00
4.408465623855590820e+00,2.531672421893170100e+00
4.410465478897094727e+00,2.531471554216331743e+00
4.412464857101440430e+00,2.531327310958780163e+00
4.414466857910156250e+00,2.531419102122676623e+00
4.416475772857666016e+00,2.525810304380691651e+00
4.418464422225952148e+00,2.528655234414963093e+00
4.420464277267456055e+00,2.529559436983995102e+00
4.422464132308959961e+00,2.527733150450366839e+00
4.424465179443359375e+00,2.529871765359850588e+00
4.426464557647705078e+00,2.528020444872432382e+00
4.428464651107788086e+00,2.527832690219007805e+00
4.430463552474975586e+00,2.527151409048010056e+00
4.432463645935058594e+00,2.528605166507383206e+00
4.434462547302246094e+00,2.529371682330570525e+00
4.436463117599487305e+00,2.529641095357071823e+00
4.438462972640991211e+00,2.529830042103534016e+00
4.440464973449707031e+00,2.530240122108474043e+00
4.442488193511962891e+00,2.528695765578242050e+00
4.444472074508666992e+00,2.513507308185971567e+00
4.446462631225585938e+00,2.521559896655070521e+00
4.448462486267089844e+00,2.523758116216435088e+00
4.450461864471435547e+00,2.524486485062418684e+00
4.452462911605834961e+00,2.525570693680130763e+00
4.454460859298706055e+00,2.524800005531311786e+00
4.456461191177368164e+00,2.525495591818760932e+00
4.458460807800292969e+00,2.526108327640095741e+00
4.460461616516113281e+00,2.527433935097925133e+00
4.462460994720458984e+00,2.525825205543661856e+00
4.464461803436279297e+00,2.527434531144443941e+00
4.466460704803466797e+00,2.527225318816342270e+00
4.468461036682128906e+00,2.528692785345648009e+00
4.470460653305053711e+00,2.528822723486748192e+00
4.472468614578247070e+00,2.529241744189470342e+00
4.474460124969482422e+00,2.529464069540985793e+00
4.476459741592407227e+00,2.529855672103842767e+00
4.478459835052490234e+00,2.531236115841402512e+00
4.480458974838256836e+00,2.531745735614983506e+00
4.482459068298339844e+00,2.531727258172900452e+00
4.484459161758422852e+00,2.532729808417535811e+00
4.486458778381347656e+00,2.532640997486233392e+00
4.488459348678588867e+00,2.534003559828228891e+00
4.490458726882934570e+00,2.532702986324189443e+00
4.492459297180175781e+00,2.534714047278648241e+00
4.494458436965942383e+00,2.534370128437295921e+00
4.496458053588867188e+00,2.534578744718878784e+00
4.498458147048950195e+00,2.535554472870167775e+00
4.500458240509033203e+00,2.535417382170841893e+00
4.502457380294799805e+00,2.535733882872329037e+00
4.504457950592041016e+00,2.536651794511293634e+00
4.506457090377807617e+00,2.536951605910254148e+00
4.508457660675048828e+00,2.536709611023618027e+00
4.510457515716552734e+00,2.537166182657025093e+00
4.512457609176635742e+00,2.537291948472493619e+00
4.514456987380981445e+00,2.537036840562443718e+00
4.516456604003906250e+00,2.537346188705705163e+00
4.518456220626831055e+00,2.538008396388101051e+00
4.520455837249755859e+00,2.537121479168114480e+00
4.522455692291259766e+00,2.536947433584622491e+00
4.524455547332763672e+00,2.537146513121904423e+00
4.526455163955688477e+00,2.537714545454328618e+00
4.528455972671508789e+00,2.537650768476816143e+00
4.530455589294433594e+00,2.537626926616063816e+00
4.532455444335937500e+00,2.536183301947510405e+00
4.534455060958862305e+00,2.537864749177068280e+00
4.536455392837524414e+00,2.537865345223587088e+00
4.538454771041870117e+00,2.537330691496216151e+00
4.540454626083374023e+00,2.537297908937681701e+00
4.542454481124877930e+00,2.536896173584004988e+00
4.544454574584960938e+00,2.537462417776872758e+00
4.546453714370727539e+00,2.537826602199864556e+00
4.548457384109497070e+00,2.537263934286109635e+00
4.550456762313842773e+00,2.535758320779600172e+00
4.552454948425292969e+00,2.537430827311375925e+00
4.554454326629638672e+00,2.536886040793185249e+00
4.556454420089721680e+00,2.537890379177377032e+00
4.558454275131225586e+00,2.537191812657333845e+00
4.560453891754150391e+00,2.537416522194924529e+00
4.562453746795654297e+00,2.536202971482631074e+00
4.564452648162841797e+00,2.536061112411154728e+00
4.566453218460083008e+00,2.537145917075385615e+00
4.568452835083007812e+00,2.537070219167496976e+00
4.570452451705932617e+00,2.536816899397003500e+00
4.572462797164916992e+00,2.536933724514689903e+00
4.574454545974731445e+00,2.535872165664692535e+00
4.576453924179077148e+00,2.536533777300569614e+00
4.578452825546264648e+00,2.536118928923479121e+00
4.580452442169189453e+00,2.536551062649615051e+00
4.582452297210693359e+00,2.535519306125558092e+00
4.584451913833618164e+00,2.536044423108628099e+00
4.586452007293701172e+00,2.536116544737403888e+00
4.588451862335205078e+00,2.535580698916995335e+00
4.590451478958129883e+00,2.536835972885605361e+00
4.592451333999633789e+00,2.536377017066123063e+00
4.594450950622558594e+00,2.536171381017134241e+00
4.596451044082641602e+00,2.535739247290998311e+00
4.598450660705566406e+00,2.536137406365562175e+00
4.600450277328491211e+00,2.537011210562134966e+00
4.602450370788574219e+00,2.536219064738638895e+00
4.604450225830078125e+00,2.537317578472802371e+00
4.606449842453002930e+00,2.536809150792258993e+00
4.608449459075927734e+00,2.536368672414859748e+00
4.610449075698852539e+00,2.536768023582461229e+00
4.612450122833251953e+00,2.536248271018060496e+00
4.614452838897705078e+00,2.536086742411463479e+00
4.616453886032104492e+00,2.533828322151699286e+00
4.618448019027709961e+00,2.533203665399988314e+00
4.620449781417846680e+00,2.534733120767250103e+00
4.622448921203613281e+00,2.533715073313125732e+00
4.624450206756591797e+00,2.533971969362732057e+00
4.626448154449462891e+00,2.532432381204650529e+00
4.628448486328125000e+00,2.532103363526268414e+00
4.630447626113891602e+00,2.533167306562341015e+00
4.632447957992553711e+00,2.532853190046929104e+00
4.634447813034057617e+00,2.531192604445529515e+00
4.636448144912719727e+00,2.533895675408324610e+00
4.638447523117065430e+00,2.533325258889825182e+00
4.640447378158569336e+00,2.534374896809446387e+00
4.642447710037231445e+00,2.532722059812791304e+00
4.644447565078735352e+00,2.533812824942210273e+00
4.646446228027343750e+00,2.534042302851951423e+00
4.648446559906005859e+00,2.534488145648019941e+00
4.650446414947509766e+00,2.534268204482579723e+00
4.652446269989013672e+00,2.535265390308545808e+00
4.654446125030517578e+00,2.535021011235834454e+00
4.656445980072021484e+00,2.534795705651724962e+00
4.658446073532104492e+00,2.536000911712755101e+00
4.660445690155029297e+00,2.536329333344618409e+00
4.662445545196533203e+00,2.535945479386505941e+00
4.664446115493774414e+00,2.536068264969380426e+00
4.666445255279541016e+00,2.535633747057169263e+00
4.668444871902465820e+00,2.537064854748827702e+00
4.670446395874023438e+00,2.536077801713681357e+00
4.672444581985473633e+00,2.536689941488497357e+00
4.674444437026977539e+00,2.536313836135129396e+00
4.676445007324218750e+00,2.536939684979877985e+00
4.678443908691406250e+00,2.536501590788553973e+00
4.680444478988647461e+00,2.536220256831676512e+00
4.682444095611572266e+00,2.536290590320895877e+00
4.684443712234497070e+00,2.536979024050119325e+00
4.686443090438842773e+00,2.536685769162865700e+00
4.688443899154663086e+00,2.537647192197703294e+00
4.690442323684692383e+00,2.537322942891471644e+00
4.692442893981933594e+00,2.537105981958625467e+00
4.694443225860595703e+00,2.537740771501156178e+00
4.696443080902099609e+00,2.538023297551071256e+00
4.698442935943603516e+00,2.538395826625326368e+00
4.700442314147949219e+00,2.538006012202025818e+00
4.702442646026611328e+00,2.537901108014715579e+00
4.704442977905273438e+00,2.538166348715585219e+00
4.706442117691040039e+00,2.537579242894559162e+00
4.708441734313964844e+00,2.538603250813871615e+00
4.710441112518310547e+00,2.537156645912724162e+00
4.712441682815551758e+00,2.537240092425357307e+00
4.714441061019897461e+00,2.536741797535633669e+00
4.716440677642822266e+00,2.537448112660421362e+00
4.718441247940063477e+00,2.536935512654246327e+00
4.720441341400146484e+00,2.537883822665670142e+00
4.722440719604492188e+00,2.537641827779034021e+00
4.724440574645996094e+00,2.537561957545513724e+00
4.726440191268920898e+00,2.537107174051663083e+00
4.728440523147583008e+00,2.538027469876702913e+00
4.730440378189086914e+00,2.537793819641330106e+00
4.732439756393432617e+00,2.537619774057838118e+00
4.734439373016357422e+00,2.537488643823700318e+00
4.736439466476440430e+00,2.537716333593885043e+00
4.738438606262207031e+00,2.538168136855141643e+00
4.740439176559448242e+00,2.537604276848349105e+00
4.742438793182373047e+00,2.538484041510109979e+00
4.744439363479614258e+00,2.538243238716511474e+00
4.746438741683959961e+00,2.537977998015641834e+00
4.748439073562622070e+00,2.537598912429679832e+00
4.750438451766967773e+00,2.537656728942004225e+00
4.752439022064208984e+00,2.539094393145369555e+00
4.754437923431396484e+00,2.539061610586835105e+00
4.756437778472900391e+00,2.538739149420159880e+00
4.758437871932983398e+00,2.539664213617350175e+00
4.760437250137329102e+00,2.539581959197754646e+00
4.762437105178833008e+00,2.539455001289248504e+00
4.764437675476074219e+00,2.539170091053258194e+00
4.766437053680419922e+00,2.540445034556988890e+00
4.768437147140502930e+00,2.540431325487056302e+00
4.770436286926269531e+00,2.540890281306538601e+00
4.772438287734985352e+00,2.541325395265268572e+00
4.774437427520751953e+00,2.541130488053618297e+00
4.776437520980834961e+00,2.542086546669786618e+00
4.778436183929443359e+00,2.542986576913186969e+00
4.780437231063842773e+00,2.543465202267789937e+00
4.782434940338134766e+00,2.543466394360827554e+00
4.784436702728271484e+00,2.542870943888538182e+00
4.786435127258300781e+00,2.543527787152264796e+00
4.788436889648437500e+00,2.543626134827868146e+00
4.790435075759887695e+00,2.543474142965572060e+00
4.792436122894287109e+00,2.543998067855604450e+00
4.794435501098632812e+00,2.543838923435082666e+00
4.796436309814453125e+00,2.543279235753921785e+00
4.798434019088745117e+00,2.545643752294033835e+00
4.800435066223144531e+00,2.545911973227497516e+00
4.802433967590332031e+00,2.546562856026036048e+00
4.804435253143310547e+00,2.546706503237068819e+00
4.806432962417602539e+00,2.546363776488754116e+00
4.808434724807739258e+00,2.546549743002622268e+00
4.810434103012084961e+00,2.546757763237686323e+00
4.812434673309326172e+00,2.547487324176707979e+00
4.814433097839355469e+00,2.548096483718929939e+00
4.816436290740966797e+00,2.548193639301495672e+00
4.818432092666625977e+00,2.544793193911694562e+00
4.820433855056762695e+00,2.545942371599956733e+00
4.822460889816284180e+00,2.546664779980752247e+00
4.824438333511352539e+00,2.539778058502442537e+00
4.826431274414062500e+00,2.542122309460915108e+00
4.828434228897094727e+00,2.543206518078627187e+00
4.830432176589965820e+00,2.544337814371325113e+00
4.832433938980102539e+00,2.544135158554930332e+00
4.834431171417236328e+00,2.542884056911951962e+00
4.836432695388793945e+00,2.543210094357740036e+00
4.838431119918823242e+00,2.543196385287807448e+00
4.840432167053222656e+00,2.544730609027219703e+00
4.842430353164672852e+00,2.544983332751194371e+00
4.844470739364624023e+00,2.545051282054338504e+00
4.846431016921997070e+00,2.544479673442801460e+00
4.848436117172241211e+00,2.546292846953015943e+00
4.850430727005004883e+00,2.546800082540521704e+00
4.852438926696777344e+00,2.547612493945657697e+00
4.854430437088012695e+00,2.547905748832911321e+00
4.856438159942626953e+00,2.548128670230945580e+00
4.858430147171020508e+00,2.547927802554107224e+00
4.860438585281372070e+00,2.549287384663508682e+00
4.862429141998291016e+00,2.549072807916737737e+00
4.864437580108642578e+00,2.549630707458342194e+00
4.866428613662719727e+00,2.549405401874232702e+00
4.868437528610229492e+00,2.549957936997167884e+00
4.870428323745727539e+00,2.550276821884730261e+00
4.872435808181762695e+00,2.550539082353005860e+00
4.874425888061523438e+00,2.550446695142590592e+00
4.876456260681152344e+00,2.551805085158954434e+00
4.878428459167480469e+00,2.550983733056036762e+00
4.880436182022094727e+00,2.551883763299437113e+00
4.882427930831909180e+00,2.551551765388460957e+00
4.884435892105102539e+00,2.551669782599184977e+00
4.886427640914916992e+00,2.551054066545256127e+00
4.888435363769531250e+00,2.551719850506764864e+00
4.890427112579345703e+00,2.551207846547108637e+00
4.892436027526855469e+00,2.551548785155866916e+00
4.894426584243774414e+00,2.552264040978436732e+00
4.896435260772705078e+00,2.552444643073635611e+00
4.898426055908203125e+00,2.552551931447021083e+00
4.900434970855712891e+00,2.552800482845364094e+00
4.902426004409790039e+00,2.551862305624760019e+00
4.904434442520141602e+00,2.551606601668191310e+00
4.906425476074218750e+00,2.551656669575771197e+00
4.908433675765991211e+00,2.552396959352130956e+00
4.910425901412963867e+00,2.552118009581328728e+00
4.912442207336425781e+00,2.551908797253227057e+00
4.914521217346191406e+00,2.549873298391497123e+00
4.916532993316650391e+00,2.502660453636700311e+00
4.918633937835693359e+00,2.493101655614573531e+00
4.920724868774414062e+00,2.476905879605517224e+00
4.923640966415405273e+00,2.442100935232750736e+00
4.925726413726806641e+00,2.448340350191634762e+00
4.928618192672729492e+00,2.425508788288687434e+00
4.930617570877075195e+00,2.401516723813620136e+00
4.932564735412597656e+00,2.380925700774872311e+00
4.934518575668334961e+00,2.405693221770909052e+00
4.936452865600585938e+00,2.408634711341227419e+00
4.938433408737182617e+00,2.401227641251998168e+00
4.940451622009277344e+00,2.400053429609946054e+00
4.942451477050781250e+00,2.395246910482276892e+00
4.944514274597167969e+00,2.384803579426238329e+00
4.946490287780761719e+00,2.382434890560494622e+00
4.948511123657226562e+00,2.365129275933417929e+00
4.950476169586181641e+00,2.383685992203472992e+00
4.952491760253906250e+00,2.388006733418313488e+00
4.954531192779541016e+00,2.389077232966092978e+00
4.956560611724853516e+00,2.345290463601406028e+00
4.958521842956542969e+00,2.310966528769317740e+00
4.960494279861450195e+00,2.366331501761854028e+00
4.962474822998046875e+00,2.364394350575727444e+00
4.964514017105102539e+00,2.373375579521129097e+00
4.966490030288696289e+00,2.372686549745386841e+00
4.968496322631835938e+00,2.381025240543513277e+00
4.970477104187011719e+00,2.386730597821545174e+00
4.972518444061279297e+00,2.391993092536103038e+00
4.974455356597900391e+00,2.397188830040553942e+00
4.976582288742065430e+00,2.403679180583856212e+00
4.978518962860107422e+00,2.396686958871717454e+00
4.980508327484130859e+00,2.401751566142030558e+00
4.982471704483032227e+00,2.402403641033606707e+00
4.984551191329956055e+00,2.407186318300523542e+00
4.986540317535400391e+00,2.394399928379050468e+00
4.988499879837036133e+00,2.412964989300368845e+00
4.990484237670898438e+00,2.414014627219990050e+00
4.992513179779052734e+00,2.417963435407094241e+00
4.994531631469726562e+00,2.422023108246697198e+00
4.996512174606323242e+00,2.420735647766071086e+00
4.998489379882812500e+00,2.429013541819279531e+00
5.000514030456542969e+00,2.432555250234037736e+00
5.002473592758178711e+00,2.437176994940876362e+00
5.004521369934082031e+00,2.443290048037773055e+00
5.006478309631347656e+00,2.447949939721815404e+00
5.008500814437866211e+00,2.450228625563219076e+00
5.010535717010498047e+00,2.453510457695777358e+00
5.012506723403930664e+00,2.454818779804561313e+00
5.014467239379882812e+00,2.460735733596770114e+00
5.016549587249755859e+00,2.463364298744714187e+00
5.018481492996215820e+00,2.465022500160038543e+00
5.020652294158935547e+00,2.479971346851747693e+00
5.022816658020019531e+00,2.477579412171770468e+00
5.025616407394409180e+00,2.468221481826482044e+00
5.027758598327636719e+00,2.478918132653013640e+00
5.029855728149414062e+00,2.488110362066073833e+00
5.032681703567504883e+00,2.466742690413318950e+00
5.034641504287719727e+00,2.447750860184533472e+00
5.036572217941284180e+00,2.487925587645243297e+00
5.038461685180664062e+00,2.494700848424535877e+00
5.040455102920532227e+00,2.499993741511552514e+00
5.042440652847290039e+00,2.504509389938043284e+00
5.044599294662475586e+00,2.507980168817063316e+00
5.046508073806762695e+00,2.506818474151906173e+00
5.048461437225341797e+00,2.510094345819275929e+00
5.050445318222045898e+00,2.517763676376781223e+00
5.052449941635131836e+00,2.516631187991045682e+00
5.054429531097412109e+00,2.524289193664693176e+00
5.056499481201171875e+00,2.527756992311119166e+00
5.058473825454711914e+00,2.512284816775895990e+00
5.060456037521362305e+00,2.533267442377500789e+00
5.062410831451416016e+00,2.577404687095246949e+00
5.064557075500488281e+00,2.593271445425921140e+00
5.066417694091796875e+00,2.600797128772393219e+00
5.068408489227294922e+00,2.618085458050424918e+00
5.070407390594482422e+00,2.627005890250908138e+00
5.072407245635986328e+00,2.637648300844228189e+00
5.074407100677490234e+00,2.646304684436879828e+00
5.076414346694946289e+00,2.656359989209173822e+00
5.078409194946289062e+00,2.657425720384802847e+00
5.080407381057739258e+00,2.668952664012034237e+00
5.082406520843505859e+00,2.674882730827657262e+00
5.084408044815063477e+00,2.681888661609728608e+00
5.086406230926513672e+00,2.686568222828891628e+00
5.088406324386596680e+00,2.693601571750828150e+00
5.090405941009521484e+00,2.695713960613484339e+00
5.092405080795288086e+00,2.700270736249772874e+00
5.094405412673950195e+00,2.702593529533568351e+00
5.096405267715454102e+00,2.706278885159359771e+00
5.098408222198486328e+00,2.707870329364577611e+00
5.100405693054199219e+00,2.710850561958618510e+00
5.102404594421386719e+00,2.710388029860023362e+00
5.104408502578735352e+00,2.713055338031689967e+00
5.106408596038818359e+00,2.712552274769815863e+00
5.108408212661743164e+00,2.712819899656760736e+00
5.110408067703247070e+00,2.712259615929081047e+00
5.112408161163330078e+00,2.711232031730655745e+00
5.114408254623413086e+00,2.710102523577514244e+00
5.116407632827758789e+00,2.709309185660980557e+00
5.118407964706420898e+00,2.707978809831000699e+00
5.120407819747924805e+00,2.705927217713262944e+00
5.122407197952270508e+00,2.702885592327784359e+00
5.124407291412353516e+00,2.701049173003336357e+00
5.126407146453857422e+00,2.698843204837227283e+00
5.128406524658203125e+00,2.696244442015223619e+00
5.130408525466918945e+00,2.692079864988310867e+00
5.132405996322631836e+00,2.688494049131160857e+00
5.134405851364135742e+00,2.683984957216376976e+00
5.136405944824218750e+00,2.679083070645698506e+00
5.138406991958618164e+00,2.675904950607413291e+00
5.140405893325805664e+00,2.672546824520448006e+00
5.142405271530151367e+00,2.667439301900780269e+00
5.144404649734497070e+00,2.663570363947196373e+00
5.146405696868896484e+00,2.658402640629129454e+00
5.148405313491821289e+00,2.654197532438937746e+00
5.150404691696166992e+00,2.650236803321457391e+00
5.152404785156250000e+00,2.646460252578288763e+00
5.154403924942016602e+00,2.629808500982344199e+00
5.156404495239257812e+00,2.620148375052020029e+00
5.158404111862182617e+00,2.612074328908244425e+00
5.160404920578002930e+00,2.605230522779288460e+00
5.162403583526611328e+00,2.598715138282196246e+00
5.164403438568115234e+00,2.592085908900011670e+00
5.166403293609619141e+00,2.581384489701329610e+00
5.168404102325439453e+00,2.577618667795499086e+00
5.170401573181152344e+00,2.570849963527913395e+00
5.172404050827026367e+00,2.565197654390055426e+00
5.174403429031372070e+00,2.555763430090359556e+00
5.176478862762451172e+00,2.553123540058558127e+00
5.178486585617065430e+00,2.520467939432613935e+00
5.180406570434570312e+00,2.515085639367775627e+00
5.182441234588623047e+00,2.526056471592959429e+00
5.184430837631225586e+00,2.512893976318117950e+00
5.186401844024658203e+00,2.510848940712087085e+00
5.188402891159057617e+00,2.508704961383934062e+00
5.190397262573242188e+00,2.505669892510162811e+00
5.192399740219116211e+00,2.503729165044923377e+00
5.194400787353515625e+00,2.500305473840889192e+00
5.196400880813598633e+00,2.498565614052488115e+00
5.198399066925048828e+00,2.496159374256059493e+00
5.200401067733764648e+00,2.492835222820666274e+00
5.202399015426635742e+00,2.491799890017496466e+00
5.204399347305297852e+00,2.490272818836309909e+00
5.206399202346801758e+00,2.488432227186230250e+00
5.208400726318359375e+00,2.487199602985334934e+00
5.210397720336914062e+00,2.485691605292750239e+00
5.212399005889892578e+00,2.484964428539804260e+00
5.214396953582763672e+00,2.484144268529923760e+00
5.216402530670166016e+00,2.483399210381413535e+00
5.218403339385986328e+00,2.477112707747543663e+00
5.220397472381591797e+00,2.481556234545258643e+00
5.222397565841674805e+00,2.480243740110843031e+00
5.224396944046020508e+00,2.480165061970360352e+00
5.226397991180419922e+00,2.480614481045541719e+00
5.228397607803344727e+00,2.480382618949725337e+00
5.230396986007690430e+00,2.479799089407812129e+00
5.232397317886352539e+00,2.480873761281223278e+00
5.234396457672119141e+00,2.480730114070190506e+00
5.236397743225097656e+00,2.481622395708846351e+00
5.238395690917968750e+00,2.493432461432512071e+00
5.240396976470947266e+00,2.497636377529666163e+00
