time_s,voltage_v
1.975059509277343750e-03,2.494152485627232352e+00
3.996610641479492188e-03,2.496869861706478844e+00
5.984067916870117188e-03,2.493758498878300145e+00
7.996320724487304688e-03,2.505494654833633206e+00
9.977340698242187500e-03,2.503685653649050380e+00
1.199007034301757812e-02,2.513020934226624092e+00
1.397681236267089844e-02,2.513047756319970460e+00
1.596331596374511719e-02,2.517637910561312697e+00
1.797008514404296875e-02,2.524301710641588148e+00
2.005910873413085938e-02,2.526997629046157545e+00
2.198147773742675781e-02,2.522831859926207176e+00
2.394485473632812500e-02,2.565430112532390616e+00
2.592825889587402344e-02,2.584669302066481489e+00
2.792525291442871094e-02,2.598681759677142988e+00
2.992796897888183594e-02,2.612853957754845524e+00
3.192543983459472656e-02,2.625108078135022893e+00
3.392481803894042969e-02,2.636866883858070665e+00
3.592395782470703125e-02,2.646268325599232529e+00
3.792524337768554688e-02,2.658462841327529080e+00
3.992438316345214844e-02,2.667183001897692751e+00
4.192709922790527344e-02,2.676873526200476583e+00
4.394912719726562500e-02,2.684998236298350882e+00
4.596424102783203125e-02,2.680973730203358052e+00
4.793739318847656250e-02,2.687106452835375414e+00
4.992508888244628906e-02,2.696528756204695121e+00
5.192399024963378906e-02,2.703349912565936375e+00
5.392527580261230469e-02,2.699009501815974765e+00
5.592584609985351562e-02,2.698244774132343871e+00
5.792522430419921875e-02,2.702471339997212674e+00
5.992412567138671875e-02,2.703687274895581805e+00
6.192636489868164062e-02,2.705144012587548996e+00
6.392931938171386719e-02,2.705757940501921421e+00
6.593012809753417969e-02,2.704888308630980287e+00
6.792807579040527344e-02,2.705176795146083446e+00
6.992912292480468750e-02,2.705133283750210449e+00
7.192635536193847656e-02,2.704614723278847332e+00
7.392907142639160156e-02,2.703746879547462623e+00
7.592773437500000000e-02,2.701542103474390721e+00
7.792925834655761719e-02,2.700595581602523332e+00
7.992887496948242188e-02,2.697013342024486171e+00
8.192896842956542969e-02,2.695524417820503338e+00
8.392834663391113281e-02,2.692272984060404717e+00
8.592844009399414062e-02,2.689757071704515390e+00
8.792805671691894531e-02,2.686114631428078603e+00
8.992886543273925781e-02,2.679511628092721587e+00
9.192800521850585938e-02,2.666787823055722928e+00
9.392881393432617188e-02,2.669145783084128087e+00
9.592795372009277344e-02,2.664731462565834708e+00
9.792947769165039062e-02,2.661422808339930501e+00
9.992742538452148438e-02,2.656522709908808455e+00
1.019289493560791016e-01,2.653375584289501266e+00
1.039285659790039062e-01,2.649795728897539338e+00
1.059286594390869141e-01,2.645240741400807227e+00
1.079273223876953125e-01,2.641650157171506752e+00
1.099283695220947266e-01,2.636686281762871786e+00
1.119298934936523438e-01,2.616514875473365365e+00
1.139469146728515625e-01,2.621243312507070655e+00
1.159360408782958984e-01,2.613767697068178464e+00
1.179292201995849609e-01,2.611672593554567712e+00
1.199247837066650391e-01,2.605502916038383798e+00
1.219265460968017578e-01,2.603071046241646425e+00
1.239290237426757812e-01,2.598907661307771289e+00
1.259288787841796875e-01,2.595128130332008620e+00
1.279284954071044922e-01,2.591645430522612426e+00
1.299295425415039062e-01,2.586681555113977904e+00
1.319267749786376953e-01,2.581841657381255484e+00
1.339287757873535156e-01,2.565276332530538106e+00
1.359279155731201172e-01,2.571289845858793832e+00
1.379292011260986328e-01,2.578844139438169147e+00
1.399276256561279297e-01,2.576961228485253663e+00
1.419289112091064453e-01,2.577267596395921068e+00
1.439280509948730469e-01,2.575881192193173241e+00
1.459288597106933594e-01,2.575537273351820922e+00
1.479275226593017578e-01,2.573893377052947962e+00
1.499288082122802734e-01,2.572107025636079847e+00
1.519279479980468750e-01,2.572092124473109642e+00
1.539285182952880859e-01,2.553796476578292562e+00
1.559274196624755859e-01,2.563007183433435365e+00
1.579284667968750000e-01,2.562234111098541156e+00
1.599767208099365234e-01,2.560051984793184410e+00
1.620037555694580078e-01,2.543328707614982864e+00
1.639552116394042969e-01,2.509578765580506854e+00
1.660320758819580078e-01,2.493203579569289730e+00
1.679885387420654297e-01,2.479887900339114548e+00
1.700036525726318359e-01,2.460313732661453923e+00
1.718845367431640625e-01,2.489497362315340467e+00
1.739351749420166016e-01,2.495673596343230827e+00
1.759247779846191406e-01,2.484539447371894028e+00
1.779279708862304688e-01,2.496296464955385375e+00
1.799299716949462891e-01,2.497558891482221100e+00
1.819355487823486328e-01,2.500781715009416928e+00
1.839251518249511719e-01,2.501944601767611687e+00
1.859271526336669922e-01,2.502391636656717822e+00
1.879291534423828125e-01,2.504989207385683869e+00
1.899287700653076172e-01,2.507971824165800001e+00
1.919276714324951172e-01,2.510540784661863256e+00
1.939296722412109375e-01,2.511895598399114249e+00
1.959247589111328125e-01,2.499193251036793129e+00
1.979260444641113281e-01,2.510660590012143700e+00
1.999282836914062500e-01,2.511472405370760441e+00
2.019293308258056641e-01,2.514815630294755522e+00
2.039234638214111328e-01,2.516467275198373432e+00
2.059259414672851562e-01,2.519762220354345050e+00
2.079288959503173828e-01,2.520901861298306290e+00
2.099363803863525391e-01,2.523569765516491703e+00
2.119278907775878906e-01,2.525718513216795191e+00
2.139296531677246094e-01,2.527450624400451762e+00
2.159276008605957031e-01,2.526797357415837997e+00
2.179284095764160156e-01,2.512864770038696349e+00
2.199275493621826172e-01,2.526308003223896481e+00
2.219281196594238281e-01,2.528704706276024172e+00
2.239274978637695312e-01,2.530367676063498994e+00
2.259287834167480469e-01,2.532605234695104901e+00
2.279276847839355469e-01,2.534005944014304124e+00
2.299289703369140625e-01,2.535713617290689559e+00
2.319278717041015625e-01,2.537293140565531235e+00
2.339291572570800781e-01,2.539008562446661177e+00
2.359285354614257812e-01,2.540644710140789631e+00
2.379291057586669922e-01,2.526712122763648427e+00
2.399268150329589844e-01,2.536654774743887675e+00
2.419285774230957031e-01,2.537829582432458597e+00
2.439272403717041016e-01,2.539403741288631000e+00
2.459290027618408203e-01,2.541008298517262620e+00
2.479269504547119141e-01,2.541610305501258882e+00
2.499284744262695312e-01,2.542704050863271892e+00
2.519268989562988281e-01,2.542232578066894622e+00
2.539300918579101562e-01,2.543425267151029789e+00
2.559275627136230469e-01,2.544389074371942616e+00
2.579288482666015625e-01,2.543423479011473365e+00
2.599272727966308594e-01,2.527540627424791797e+00
2.619280815124511719e-01,2.539838855247360971e+00
2.639315128326416016e-01,2.540696566187925942e+00
2.659318447113037109e-01,2.537017171027323048e+00
2.679271697998046875e-01,2.539885346875828009e+00
2.699284553527832031e-01,2.540700142467038791e+00
2.719275951385498047e-01,2.541293804799771738e+00
2.739286422729492188e-01,2.541719382014200779e+00
2.759277820587158203e-01,2.541377847358923692e+00
2.779834270477294922e-01,2.541916673411926286e+00
2.800283432006835938e-01,2.492958008403540759e+00
2.819218635559082031e-01,2.501398027109864586e+00
2.839338779449462891e-01,2.518630328015128317e+00
2.859656810760498047e-01,2.519339027325991243e+00
2.879583835601806641e-01,2.495804130530849818e+00
2.899332046508789062e-01,2.508832515338959013e+00
2.919297218322753906e-01,2.512539924685945891e+00
2.939300537109375000e-01,2.514438332848349944e+00
2.959277629852294922e-01,2.515080870995625162e+00
2.979316711425781250e-01,2.516532840315442332e+00
2.999291419982910156e-01,2.516050042635207706e+00
3.019535541534423828e-01,2.513673605164719049e+00
3.039641380310058594e-01,2.500735819427468698e+00
3.059434890747070312e-01,2.490409909535635791e+00
3.079564571380615234e-01,2.483654318291463436e+00
3.099436759948730469e-01,2.454915339340608238e+00
3.119604587554931641e-01,2.443845563393302278e+00
3.140184879302978516e-01,2.441320710339630828e+00
3.159158229827880859e-01,2.443726950136059450e+00
3.179638385772705078e-01,2.477745113103999142e+00
3.199460506439208984e-01,2.465352113884939467e+00
3.219311237335205078e-01,2.490501700699532250e+00
3.239371776580810547e-01,2.498725354519528707e+00
3.260085582733154297e-01,2.501588165949364395e+00
3.279368877410888672e-01,2.463268335255186070e+00
3.299589157104492188e-01,2.498913109172953284e+00
3.319449424743652344e-01,2.508946360224051375e+00
3.339443206787109375e-01,2.517239155440230025e+00
3.359396457672119141e-01,2.524680200181031342e+00
3.379435539245605469e-01,2.529846731406060645e+00
3.399446010589599609e-01,2.535171214958574115e+00
3.419439792633056641e-01,2.542063896902071907e+00
3.439421653747558594e-01,2.548360532326761962e+00
3.459427356719970703e-01,2.553772634717540235e+00
3.479418754577636719e-01,2.560196824097254797e+00
3.499419689178466797e-01,2.564623661592443149e+00
3.519423007965087891e-01,2.569914766539903361e+00
3.539419174194335938e-01,2.574492999850868991e+00
3.559370040893554688e-01,2.579305479443726679e+00
3.579416275024414062e-01,2.582311342038076329e+00
3.599424362182617188e-01,2.586285184178970464e+00
3.619472980499267578e-01,2.590077232131628104e+00
3.639383316040039062e-01,2.589257668168266857e+00
3.659396171569824219e-01,2.593493174730917783e+00
3.679428100585937500e-01,2.597058725006428315e+00
3.699452877044677734e-01,2.600088429461530293e+00
3.719420433044433594e-01,2.597293567334838738e+00
3.739418983459472656e-01,2.603292179500124259e+00
3.759400844573974609e-01,2.606297446047955102e+00
3.779423236846923828e-01,2.606545401399779305e+00
3.799417018890380859e-01,2.609662724693146529e+00
3.819429874420166016e-01,2.611813856579525250e+00
3.839421272277832031e-01,2.612931443802290588e+00
3.859422206878662109e-01,2.614568783589456658e+00
3.879420757293701172e-01,2.616522624078109871e+00
3.899426460266113281e-01,2.617765977116343734e+00
3.919415473937988281e-01,2.619207217598821913e+00
3.939423561096191406e-01,2.619154169458647985e+00
3.959405422210693359e-01,2.620513751568049443e+00
3.979420661926269531e-01,2.619996979236242751e+00
3.999423980712890625e-01,2.622149899262177897e+00
4.019427299499511719e-01,2.622157051820403595e+00
4.039418697357177734e-01,2.622091486703334695e+00
4.059424400329589844e-01,2.622171356936854991e+00
4.079413414001464844e-01,2.622444942288987946e+00
4.099421501159667969e-01,2.622403219032671373e+00
4.119453430175781250e-01,2.622972443458133185e+00
4.139420986175537109e-01,2.622387721823182360e+00
4.159412384033203125e-01,2.622732832757572297e+00
4.179432392120361328e-01,2.619144036667828246e+00
4.199419021606445312e-01,2.619422986438630474e+00
4.219424724578857422e-01,2.619003965735908324e+00
4.239411354064941406e-01,2.618257119447841674e+00
4.259414672851562500e-01,2.618240430145315045e+00
4.279410839080810547e-01,2.616380765006633524e+00
4.299428462982177734e-01,2.615126087084542306e+00
4.319424629211425781e-01,2.614463283355627610e+00
4.339423179626464844e-01,2.609607888413416177e+00
4.359407424926757812e-01,2.610400630283431056e+00
4.379417896270751953e-01,2.607183171174904057e+00
4.399409294128417969e-01,2.607570601412129374e+00
4.419426918029785156e-01,2.604270291837488482e+00
4.439411163330078125e-01,2.603437018804194647e+00
4.459421634674072266e-01,2.602348637860850911e+00
4.479405879974365234e-01,2.600117635740951894e+00
4.499423503875732422e-01,2.597929548970407065e+00
4.519412517547607422e-01,2.596361350579422744e+00
4.539422988891601562e-01,2.593928288689647754e+00
4.559407234191894531e-01,2.592646192627691359e+00
4.579424858093261719e-01,2.589328001657486222e+00
4.599413871765136719e-01,2.588674138626353649e+00
4.619441032409667969e-01,2.585949013942362651e+00
4.639415740966796875e-01,2.581216404583025703e+00
4.659423828125000000e-01,2.581255147606748235e+00
4.679369926452636719e-01,2.579297730838982172e+00
4.699401855468750000e-01,2.576665589411924806e+00
4.719426631927490234e-01,2.574320742406933427e+00
4.739422798156738281e-01,2.571558662838776321e+00
4.759409427642822266e-01,2.569962450261408016e+00
4.779427051544189453e-01,2.567391701625788336e+00
4.799413681030273438e-01,2.565926023236039022e+00
4.819416999816894531e-01,2.563115067853339646e+00
4.839510917663574219e-01,2.562066622026756058e+00
4.859426021575927734e-01,2.559985823629596702e+00
4.879407882690429688e-01,2.557677335462252621e+00
4.899427890777587891e-01,2.555651373344823618e+00
4.919409751892089844e-01,2.554315633096174487e+00
4.939422607421875000e-01,2.553222483780680285e+00
4.959375858306884766e-01,2.551355070037254258e+00
4.979391098022460938e-01,2.549276059779651327e+00
4.999485015869140625e-01,2.548655575353572011e+00
5.019457340240478516e-01,2.543142145054595904e+00
5.039410591125488281e-01,2.543381755755156792e+00
5.059678554534912109e-01,2.540880744562237670e+00
5.079615116119384766e-01,2.515192331694642291e+00
5.099430084228515625e-01,2.531714741196005480e+00
5.119385719299316406e-01,2.531664673288425593e+00
5.139470100402832031e-01,2.530171576758811103e+00
5.159494876861572266e-01,2.525109353674573232e+00
5.179429054260253906e-01,2.527001205325270394e+00
5.199377536773681641e-01,2.527594271611484533e+00
5.219402313232421875e-01,2.524442377620026878e+00
5.239417552947998047e-01,2.525494995772242124e+00
5.259423255920410156e-01,2.524390521572890567e+00
5.279445648193359375e-01,2.525708976472494260e+00
5.299532413482666016e-01,2.525592747401326665e+00
5.319430828094482422e-01,2.519630494073688443e+00
5.339441299438476562e-01,2.521225514558019132e+00
5.359427928924560547e-01,2.521533670608242961e+00
5.379440784454345703e-01,2.520624103620541678e+00
5.399413108825683594e-01,2.521339359443111494e+00
5.419437885284423828e-01,2.521493139444964005e+00
5.439410209655761719e-01,2.521688642703133088e+00
5.459420680999755859e-01,2.521790566657849286e+00
5.479414463043212891e-01,2.522989216207172536e+00
5.499422550201416016e-01,2.523172202488446647e+00
5.519840717315673828e-01,2.524009051800853332e+00
5.539994239807128906e-01,2.486531434837750965e+00
5.559277534484863281e-01,2.469625171378275308e+00
5.580048561096191406e-01,2.459862525446716131e+00
5.599160194396972656e-01,2.453025871875985864e+00
5.619540214538574219e-01,2.464034255031854581e+00
5.639393329620361328e-01,2.482036648039418036e+00
5.659413337707519531e-01,2.485941348784130867e+00
5.679435729980468750e-01,2.489639221386816814e+00
5.699441432952880859e-01,2.490782438609890903e+00
5.719385147094726562e-01,2.494713365401430849e+00
5.739402770996093750e-01,2.497622072413214767e+00
5.759432315826416016e-01,2.499552071041115653e+00
5.779433250427246094e-01,2.501879632697061595e+00
5.799422264099121094e-01,2.503853142720835478e+00
5.819430351257324219e-01,2.506117523445787754e+00
5.839416980743408203e-01,2.508781255338341509e+00
5.859420299530029297e-01,2.512171567937322436e+00
5.879418849945068359e-01,2.514258326799669874e+00
5.899446010589599609e-01,2.516143025892141782e+00
5.919439792633056641e-01,2.517559828467348826e+00
5.939450263977050781e-01,2.520545425480058999e+00
5.959415435791015625e-01,2.521132531301085056e+00
5.979433059692382812e-01,2.522937956206555032e+00
5.999414920806884766e-01,2.524983587859104706e+00
6.019432544708251953e-01,2.526453438574485677e+00
6.039412021636962891e-01,2.528985444186382825e+00
6.059424877166748047e-01,2.530979219791796186e+00
6.079411506652832031e-01,2.532569471903976410e+00
6.099419593811035156e-01,2.533921305408633362e+00
6.119415760040283203e-01,2.535885874734625123e+00
6.139428615570068359e-01,2.536594574045488049e+00
6.159415245056152344e-01,2.538284365926309238e+00
6.179559230804443359e-01,2.539909784783099145e+00
6.199419498443603516e-01,2.540971343633096513e+00
6.219432353973388672e-01,2.540418808510161330e+00
6.239409446716308594e-01,2.540639941768639165e+00
6.259429454803466797e-01,2.543079560170121045e+00
6.279418468475341797e-01,2.543916409482527730e+00
6.299424171447753906e-01,2.544264500649511707e+00
6.319408416748046875e-01,2.545687859736425640e+00
6.339418888092041016e-01,2.545681899271237558e+00
6.359403133392333984e-01,2.547586267898830137e+00
6.379423141479492188e-01,2.547412222315338148e+00
6.399407386779785156e-01,2.547884291158234227e+00
6.419479846954345703e-01,2.547442620687797366e+00
6.439421176910400391e-01,2.548596566748210002e+00
6.459434032440185547e-01,2.548833793262695657e+00
6.479420661926269531e-01,2.547435468129571667e+00
6.499421596527099609e-01,2.548163240929036455e+00
6.519403457641601562e-01,2.548733061401017075e+00
6.539413928985595703e-01,2.548024362090154149e+00
6.559402942657470703e-01,2.548744386284874430e+00
6.579432487487792969e-01,2.548526829305509445e+00
6.599421501159667969e-01,2.548451727444139614e+00
6.619448661804199219e-01,2.547440236501722133e+00
6.639418601989746094e-01,2.548330730000821553e+00
6.659426689147949219e-01,2.548564976282713168e+00
6.679432392120361328e-01,2.548047607904387668e+00
6.699523925781250000e-01,2.546887701378786950e+00
6.719319820404052734e-01,2.547997539996807781e+00
6.739425659179687500e-01,2.547262614639117295e+00
6.759417057037353516e-01,2.547114795102452867e+00
6.779425144195556641e-01,2.546021645786958221e+00
6.799411773681640625e-01,2.545571034618739237e+00
6.819424629211425781e-01,2.544359272046002207e+00
6.839408874511718750e-01,2.545371955081457305e+00
6.859426498413085938e-01,2.545236056475169040e+00
6.879413127899169922e-01,2.545123999729633102e+00
6.899418830871582031e-01,2.543989723204341136e+00
6.919407844543457031e-01,2.544307415998865896e+00
6.939420700073242188e-01,2.543971245762258082e+00
6.959424018859863281e-01,2.542957370633765368e+00
6.979432106018066406e-01,2.540080254087478284e+00
6.999394893646240234e-01,2.540303771532031352e+00
7.019422054290771484e-01,2.539310161985178116e+00
7.039408683776855469e-01,2.539609973384138630e+00
7.059431076049804688e-01,2.539353077334532305e+00
7.079412937164306641e-01,2.538917367329283525e+00
7.099428176879882812e-01,2.538750474304017235e+00
7.119407653808593750e-01,2.538290922438016128e+00
7.139704227447509766e-01,2.537365262194307025e+00
7.159490585327148438e-01,2.537012402655172583e+00
7.179417610168457031e-01,2.532930080047855359e+00
7.199420928955078125e-01,2.532180849573713477e+00
7.219531536102294922e-01,2.530486289320741822e+00
7.239384651184082031e-01,2.531532947007768986e+00
7.259397506713867188e-01,2.530968490954457639e+00
7.279429435729980469e-01,2.531443540029947759e+00
7.299420833587646484e-01,2.530724707928265094e+00
7.319414615631103516e-01,2.529642883496628247e+00
7.339422702789306641e-01,2.529725137916223776e+00
7.359409332275390625e-01,2.530319992341994340e+00
7.379429340362548828e-01,2.529512349309009256e+00
7.399418354034423828e-01,2.528823319533267000e+00
7.419424057006835938e-01,2.527697983705757157e+00
7.439408302307128906e-01,2.528675499996602571e+00
7.459423542022705078e-01,2.527806464172180245e+00
7.479412555694580078e-01,2.528091970454689363e+00
7.499423027038574219e-01,2.528173628827766084e+00
7.519407272338867188e-01,2.527546587889979879e+00
7.539427280426025391e-01,2.528152171153088990e+00
7.559413909912109375e-01,2.527072134861008568e+00
7.579421997070312500e-01,2.527282539282147855e+00
7.599406242370605469e-01,2.526081505546749373e+00
7.619419097900390625e-01,2.525524798098182533e+00
7.639405727386474609e-01,2.526037398104357568e+00
7.659420967102050781e-01,2.525771561356969119e+00
7.679402828216552734e-01,2.526337209503318082e+00
7.699491977691650391e-01,2.525311413444449204e+00
7.719449996948242188e-01,2.519778313610352871e+00
7.739424705505371094e-01,2.523731294123088720e+00
7.759413719177246094e-01,2.523172798534965455e+00
7.779421806335449219e-01,2.522735896436679059e+00
7.799422740936279297e-01,2.521949711078371070e+00
7.819421291351318359e-01,2.521677913865794540e+00
7.839407920837402344e-01,2.522296610152317431e+00
7.859425544738769531e-01,2.523302736676065638e+00
7.879405021667480469e-01,2.522416415502597875e+00
7.899422645568847656e-01,2.522529068294652621e+00
7.919402122497558594e-01,2.522304358757061937e+00
7.939422130584716797e-01,2.522481384573147967e+00
7.959408760070800781e-01,2.521974148985642206e+00
7.979423999786376953e-01,2.521562876887664562e+00
7.999415397644042969e-01,2.520757618040754711e+00
8.019425868988037109e-01,2.521462145025985979e+00
8.039405345916748047e-01,2.522070112475170323e+00
8.059427738189697266e-01,2.522310915268768827e+00
8.079414367675781250e-01,2.521995010613800492e+00
8.099420070648193359e-01,2.521966996427416507e+00
8.119416236877441406e-01,2.522556486434517797e+00
8.139421939849853516e-01,2.522440257363350202e+00
8.159410953521728516e-01,2.522172036429886521e+00
8.179416656494140625e-01,2.523530426446250363e+00
8.199408054351806641e-01,2.521776857587916698e+00
8.219423294067382812e-01,2.522406282711778136e+00
8.239398002624511719e-01,2.524006667614778099e+00
8.259422779083251953e-01,2.522819342949312205e+00
8.279402256011962891e-01,2.524069848545771766e+00
8.299419879913330078e-01,2.523686590634178106e+00
8.319408893585205078e-01,2.523847523194256315e+00
8.339426517486572266e-01,2.523310485280810145e+00
8.359410762786865234e-01,2.523479166445632860e+00
8.379449844360351562e-01,2.523194256209642550e+00
8.399405479431152344e-01,2.520907821763494372e+00
8.419427871704101562e-01,2.519738378493592723e+00
8.439407348632812500e-01,2.519923748960942067e+00
8.459424972534179688e-01,2.520343961756701834e+00
8.479409217834472656e-01,2.519933285705242998e+00
8.499422073364257812e-01,2.519307436860494409e+00
8.519403934478759766e-01,2.518447341733854206e+00
8.539416790008544922e-01,2.517537178699634115e+00
8.559410572052001953e-01,2.517686786375854968e+00
8.579430580139160156e-01,2.518219651963669481e+00
8.599407672882080078e-01,2.518137993590592760e+00
8.619422912597656250e-01,2.517682018003704503e+00
8.639407157897949219e-01,2.517230810788966711e+00
8.659424781799316406e-01,2.517385782883856837e+00
8.679409027099609375e-01,2.516986431716255357e+00
8.699424266815185547e-01,2.517173590323161125e+00
8.719403743743896484e-01,2.516472639617042706e+00
8.739416599273681641e-01,2.516985239623217741e+00
8.759410381317138672e-01,2.517144980090258333e+00
8.779430389404296875e-01,2.515930237284927262e+00
8.799409866333007812e-01,2.514617742850511206e+00
8.819420337677001953e-01,2.514236273078473971e+00
8.839411735534667969e-01,2.514761390061543977e+00
8.859419822692871094e-01,2.514885367737456079e+00
8.879415988922119141e-01,2.514213027264240452e+00
8.899431228637695312e-01,2.514810265876086248e+00
8.919432163238525391e-01,2.511970700260484080e+00
8.939428329467773438e-01,2.515043916111459055e+00
8.959407806396484375e-01,2.515716256584675126e+00
8.979427814483642578e-01,2.515985669611176423e+00
8.999412059783935547e-01,2.515693606816960415e+00
9.019432067871093750e-01,2.516933979622600237e+00
9.039409160614013672e-01,2.516708077991971937e+00
9.059426784515380859e-01,2.516924442878299306e+00
9.079411029815673828e-01,2.517719568934389418e+00
9.099423885345458984e-01,2.518644037085060905e+00
9.119400978088378906e-01,2.519457044536715262e+00
9.139428138732910156e-01,2.519815268494518978e+00
9.159812927246093750e-01,2.520681920132866072e+00
9.179456233978271484e-01,2.515802683329902312e+00
9.199430942535400391e-01,2.518501581967065750e+00
9.219427108764648438e-01,2.517906727541295187e+00
9.239382743835449219e-01,2.520113291753923068e+00
9.259400367736816406e-01,2.519304456627900368e+00
9.279425144195556641e-01,2.519587578724334254e+00
9.299426078796386719e-01,2.522172036429886521e+00
9.319412708282470703e-01,2.522697749459475336e+00
9.339418411254882812e-01,2.524155679244480144e+00
9.359407424926757812e-01,2.524681392274068958e+00
9.379425048828125000e-01,2.525574269959243612e+00
9.399406909942626953e-01,2.526765170903822355e+00
9.419429302215576172e-01,2.526156607408119203e+00
9.439449310302734375e-01,2.527852359754128475e+00
9.459431171417236328e-01,2.528703514182986556e+00
9.479415416717529297e-01,2.529436651401120617e+00
9.499430656433105469e-01,2.530973855373126913e+00
9.519412517547607422e-01,2.531358305377758189e+00
9.539425373077392578e-01,2.532069388874696347e+00
9.559404850006103516e-01,2.532475892600523526e+00
9.579427242279052734e-01,2.534425560763545082e+00
9.599409103393554688e-01,2.533621494009672848e+00
9.619426727294921875e-01,2.534820739605514905e+00
9.639410972595214844e-01,2.536060516364635919e+00
9.659419059753417969e-01,2.536978428003600516e+00
9.679403305053710938e-01,2.538279001507639965e+00
9.699423313140869141e-01,2.538516824068644429e+00
9.719407558441162109e-01,2.539564077802190400e+00
9.739427566528320312e-01,2.540860478980598192e+00
9.759404659271240234e-01,2.540525500837027995e+00
9.779427051544189453e-01,2.542037074808725539e+00
9.799401760101318359e-01,2.542349403184581025e+00
9.819416999816894531e-01,2.541904156435031314e+00
9.839408397674560547e-01,2.543609445525341517e+00
9.859433174133300781e-01,2.544718092050324731e+00
9.879403114318847656e-01,2.545090025078061036e+00
9.899423122406005859e-01,2.545928662530024145e+00
9.919404983520507812e-01,2.546506827653268079e+00
9.939422607421875000e-01,2.547043269520195885e+00
9.959416389465332031e-01,2.547349637430863289e+00
9.979417324066162109e-01,2.547820514180721752e+00
9.999415874481201172e-01,2.548859423263004409e+00
1.001941919326782227e+00,2.547738855807645031e+00
1.003939628601074219e+00,2.549736803738690050e+00
1.005942583084106445e+00,2.549522226991919105e+00
1.007941484451293945e+00,2.550001448393040882e+00
1.009943008422851562e+00,2.550464576538154837e+00
1.011941671371459961e+00,2.551005190730713856e+00
1.013942480087280273e+00,2.550899690496884809e+00
1.015940904617309570e+00,2.550376957699890035e+00
1.017941713333129883e+00,2.551762765856119053e+00
1.019940853118896484e+00,2.550664252121955577e+00
1.021942138671875000e+00,2.550313180722377560e+00
1.023940086364746094e+00,2.551620310738123898e+00
1.025942802429199219e+00,2.551017111661090020e+00
1.027941226959228516e+00,2.551541036551122410e+00
1.029942274093627930e+00,2.548981016752841278e+00
1.031941890716552734e+00,2.550810879565582390e+00
1.033943176269531250e+00,2.550714916076054273e+00
1.035940885543823242e+00,2.549777930948487814e+00
1.037943124771118164e+00,2.550607031656149992e+00
1.039940595626831055e+00,2.549702829087117983e+00
1.041941881179809570e+00,2.548601931166879275e+00
1.043940067291259766e+00,2.549427455595428604e+00
1.045943021774291992e+00,2.549344009082795459e+00
1.047940492630004883e+00,2.549243277221116877e+00
1.049942731857299805e+00,2.548287814651467365e+00
1.051940917968750000e+00,2.548485702095711680e+00
1.054025173187255859e+00,2.547944491856633853e+00
1.056138515472412109e+00,2.547597592782687492e+00
1.060107946395874023e+00,2.544803922749033109e+00
1.064095973968505859e+00,2.549432820014097878e+00
1.068099498748779297e+00,2.552455371910974158e+00
1.072098016738891602e+00,2.554109997047185665e+00
1.076097011566162109e+00,2.554931945196622145e+00
1.080097675323486328e+00,2.556312388934181890e+00
1.084098100662231445e+00,2.557220167782326747e+00
1.088095426559448242e+00,2.558855123383417585e+00
1.092094898223876953e+00,2.558891482221064884e+00
1.096094846725463867e+00,2.559063739665000448e+00
1.100093126296997070e+00,2.558918900360930060e+00
1.104093313217163086e+00,2.559147186177633593e+00
1.108093976974487305e+00,2.559209175015589643e+00
1.112093448638916016e+00,2.558645315008797105e+00
1.116098642349243164e+00,2.558499879658207909e+00
1.120124578475952148e+00,2.556311196841144273e+00
1.124094724655151367e+00,2.554406828213552139e+00
1.128118753433227539e+00,2.554006880999431850e+00
1.132093191146850586e+00,2.552577561447329835e+00
1.136091947555541992e+00,2.551853960973496704e+00
1.140090703964233398e+00,2.550747698634588723e+00
1.144092321395874023e+00,2.548826640704469959e+00
1.148091554641723633e+00,2.547555869526370920e+00
1.152091026306152344e+00,2.547710841621261046e+00
1.156189441680908203e+00,2.545351093453299018e+00
1.160257339477539062e+00,2.544445102744710585e+00
1.164363861083984375e+00,2.542568152256983627e+00
1.168361902236938477e+00,2.543966477390107617e+00
1.172362565994262695e+00,2.544036214832808174e+00
1.176361799240112305e+00,2.544220393207119901e+00
1.180361032485961914e+00,2.544068997391342624e+00
1.184360742568969727e+00,2.543218439009003351e+00
1.188360214233398438e+00,2.542721932258836137e+00
1.192360639572143555e+00,2.541953032249573585e+00
1.196360588073730469e+00,2.542140190856479354e+00
1.200358867645263672e+00,2.541159694333039898e+00
1.204359531402587891e+00,2.540750210374618678e+00
1.208360910415649414e+00,2.540386025951626880e+00
1.212357282638549805e+00,2.539925281992588157e+00
1.216358900070190430e+00,2.539081876168474583e+00
1.220357656478881836e+00,2.539750044316058553e+00
1.224358320236206055e+00,2.578061530358973563e+00
1.228356361389160156e+00,2.576271602662992599e+00
1.232357263565063477e+00,2.575687477074560583e+00
1.236356973648071289e+00,2.574701020085933045e+00
1.240356922149658203e+00,2.574634858922345337e+00
1.244357109069824219e+00,2.572579690525494733e+00
1.248354434967041016e+00,2.573027321461119676e+00
1.252354860305786133e+00,2.572104641450004614e+00
1.256356239318847656e+00,2.532182637713269902e+00
1.260603904724121094e+00,2.527119222535994414e+00
1.264720678329467773e+00,2.520025076869139458e+00
1.268916130065917969e+00,2.527756396264600358e+00
1.272714614868164062e+00,2.528336349527400717e+00
1.276706457138061523e+00,2.528037730221477819e+00
1.280697345733642578e+00,2.529701892101990257e+00
1.284696102142333984e+00,2.530603710484947033e+00
1.288694381713867188e+00,2.531476322588482208e+00
1.292695760726928711e+00,2.533144656794626304e+00
1.296694040298461914e+00,2.534370724483814730e+00
1.300698280334472656e+00,2.533588115404619590e+00
1.304692029953002930e+00,2.533686463080222939e+00
1.308692455291748047e+00,2.533485595403384583e+00
1.312693119049072266e+00,2.533994619130446768e+00
1.316699504852294922e+00,2.533634607033086628e+00
1.320694923400878906e+00,2.531811896778571214e+00
1.324688196182250977e+00,2.531050745374053168e+00
1.328691959381103516e+00,2.530869547232335481e+00
1.332692623138427734e+00,2.529912296523129545e+00
1.336690187454223633e+00,2.528513375343486747e+00
1.340691089630126953e+00,2.528332773248287868e+00
1.344689846038818359e+00,2.528969946976893812e+00
1.348689079284667969e+00,2.526489201365614168e+00
1.352688312530517578e+00,2.526949945324652891e+00
1.356839895248413086e+00,2.525741759031028710e+00
1.360849142074584961e+00,2.524741592972468585e+00
1.365113496780395508e+00,2.526695433461121798e+00
1.370118379592895508e+00,2.522821131088868629e+00
1.375113248825073242e+00,2.522827687600575519e+00
1.380109548568725586e+00,2.523246708303297670e+00
1.385111570358276367e+00,2.523884478078422422e+00
1.390113353729248047e+00,2.525103393209385150e+00
1.395111322402954102e+00,2.526794377183243956e+00
1.400108098983764648e+00,2.527515593471001853e+00
1.405109405517578125e+00,2.526206675315699091e+00
1.410110712051391602e+00,2.527374330446044315e+00
1.415110349655151367e+00,2.527436915330519174e+00
1.420107603073120117e+00,2.527277174863478582e+00
1.425107717514038086e+00,2.527283135328666663e+00
1.430109500885009766e+00,2.529091540466730681e+00
1.435108661651611328e+00,2.530327144900220038e+00
1.440104007720947266e+00,2.531183663747747392e+00
1.445104360580444336e+00,2.530743185370348147e+00
1.450108528137207031e+00,2.532826964000101544e+00
1.455103874206542969e+00,2.533476654705602460e+00
1.460242033004760742e+00,2.533174459120566713e+00
1.464681863784790039e+00,2.525528374377295382e+00
1.468679666519165039e+00,2.531023923280706800e+00
1.472679376602172852e+00,2.531044188862346278e+00
1.476675510406494141e+00,2.531043592815827470e+00
1.480680942535400391e+00,2.530868951185816673e+00
1.484678506851196289e+00,2.531746927708021122e+00
1.488678693771362305e+00,2.533442084007511585e+00
1.492676973342895508e+00,2.573324748674004958e+00
1.496778488159179688e+00,2.576128551498478636e+00
1.500678300857543945e+00,2.539659445245199709e+00
1.504690647125244141e+00,2.540462319906034327e+00
1.508693933486938477e+00,2.567555018371941777e+00
1.512674808502197266e+00,2.542538945977562026e+00
1.516683816909790039e+00,2.546445434861830837e+00
1.520675182342529297e+00,2.548491662560899762e+00
1.524671792984008789e+00,2.552640742378323502e+00
1.528668642044067383e+00,2.557118243827610549e+00
1.532672405242919922e+00,2.560761280150566144e+00
1.536674499511718750e+00,2.565411635090307563e+00
1.540677785873413086e+00,2.568305440939121276e+00
1.544675111770629883e+00,2.573096462857301425e+00
1.548672437667846680e+00,2.579577276656303209e+00
1.552672147750854492e+00,2.583912322987595100e+00
1.556670665740966797e+00,2.589122365608497400e+00
1.560921192169189453e+00,2.593005012632013884e+00
1.565130233764648438e+00,2.597757291526471501e+00
1.570098161697387695e+00,2.598532748047440943e+00
1.575270891189575195e+00,2.601500463664586871e+00
1.580130577087402344e+00,2.573502370536609796e+00
1.585067510604858398e+00,2.588253329784075074e+00
1.590071916580200195e+00,2.589689205847883979e+00
1.595066785812377930e+00,2.590675662836511517e+00
1.600060462951660156e+00,2.589470456775481377e+00
1.605057954788208008e+00,2.588281940016977867e+00
1.610059976577758789e+00,2.588071535595838579e+00
1.615062236785888672e+00,2.587219189073942882e+00
1.620064020156860352e+00,2.585505555332369365e+00
1.625060081481933594e+00,2.583261440189056568e+00
1.630064249038696289e+00,2.581651518541755674e+00
1.635061740875244141e+00,2.578279087338338993e+00
1.640060186386108398e+00,2.616299702680075612e+00
1.645056247711181641e+00,2.574015566589303639e+00
1.650063276290893555e+00,2.573394486116705515e+00
1.655059337615966797e+00,2.571331569115110405e+00
1.660222768783569336e+00,2.570648499804556231e+00
1.664851903915405273e+00,2.566417165567536962e+00
1.668640136718750000e+00,2.570985862134201660e+00
1.672633171081542969e+00,2.566985197899961157e+00
1.676635503768920898e+00,2.566492267428906793e+00
1.680635213851928711e+00,2.566092320214786504e+00
1.684633493423461914e+00,2.564977117178096400e+00
1.688632726669311523e+00,2.565818138816134741e+00
1.692636013031005859e+00,2.566964336271802871e+00
1.696632385253906250e+00,2.566244312077082590e+00
1.700633049011230469e+00,2.567158647436934338e+00
1.704631567001342773e+00,2.567545481627640847e+00
1.708632946014404297e+00,2.567172952553385734e+00
1.712631464004516602e+00,2.568454452568823321e+00
1.716631412506103516e+00,2.568963476295885506e+00
1.720700740814208984e+00,2.564662404616165681e+00
1.724644660949707031e+00,2.568756648153859068e+00
1.728631496429443359e+00,2.567626543954198759e+00
1.732629060745239258e+00,2.568307229078677700e+00
1.736639261245727539e+00,2.567164607902122420e+00
1.740631103515625000e+00,2.568059869773372306e+00
1.744627475738525391e+00,2.568549223965313821e+00
1.748627662658691406e+00,2.567912050236707877e+00
1.752625703811645508e+00,2.567721315350689260e+00
1.756626129150390625e+00,2.568171926518908244e+00
1.760755538940429688e+00,2.568458028847936170e+00
1.764784812927246094e+00,2.568552204197907862e+00
1.769048213958740234e+00,2.571304150975245228e+00
1.774143218994140625e+00,2.558509416402508840e+00
1.779197454452514648e+00,2.535163466353829609e+00
1.784170866012573242e+00,2.519578041980033323e+00
1.789170503616333008e+00,2.516043486123500816e+00
1.794156312942504883e+00,2.507070005782843225e+00
1.799121141433715820e+00,2.505036891107188524e+00
1.804083108901977539e+00,2.503757775277826170e+00
1.809070110321044922e+00,2.501182258270056025e+00
1.814075946807861328e+00,2.500637471751865348e+00
1.819106578826904297e+00,2.536918227305200890e+00
1.824087858200073242e+00,2.501518428506663838e+00
1.829079627990722656e+00,2.501785457347089903e+00
1.834103107452392578e+00,2.503618896438943864e+00
1.839097261428833008e+00,2.504020035746101769e+00
1.844142913818359375e+00,2.501313984550712632e+00
1.849157333374023438e+00,2.503734529463592651e+00
1.854216814041137695e+00,2.503081858525497694e+00
1.859172105789184570e+00,2.463041837578038962e+00
1.864335060119628906e+00,2.506621778800699474e+00
1.867853164672851562e+00,2.504715025987032107e+00
1.869902133941650391e+00,2.464607651782948050e+00
1.871889591217041016e+00,2.454029614213659283e+00
1.873833894729614258e+00,2.439362697525345958e+00
1.875740289688110352e+00,2.472869452580148231e+00
1.877738237380981445e+00,2.478933033815983844e+00
1.879738807678222656e+00,2.482207117343797176e+00
1.881736755371093750e+00,2.482329902926671661e+00
1.883740186691284180e+00,2.486396728324500316e+00
1.885737419128417969e+00,2.487780748341172909e+00
1.887739419937133789e+00,2.489151655334431723e+00
1.889743328094482422e+00,2.490601240468173216e+00
1.891785144805908203e+00,2.494121491208254326e+00
1.893744945526123047e+00,2.482996878981218014e+00
1.895742177963256836e+00,2.493469416316678178e+00
1.897739410400390625e+00,2.496099769604178675e+00
1.899737358093261719e+00,2.499776780578706337e+00
1.901735305786132812e+00,2.502076924094787103e+00
1.903740406036376953e+00,2.504505813658930435e+00
1.905738830566406250e+00,2.506822646477537830e+00
1.907738924026489258e+00,2.508625091150413766e+00
1.909737348556518555e+00,2.512362302823341054e+00
1.911739349365234375e+00,2.515518369140430366e+00
1.913737773895263672e+00,2.518036069635876562e+00
1.915738344192504883e+00,2.520082297334945043e+00
1.917751073837280273e+00,2.523705664122779968e+00
1.919743061065673828e+00,2.518917622437193859e+00
1.921737670898437500e+00,2.527118626489475606e+00
1.923736333847045898e+00,2.530043426757267344e+00
1.925734996795654297e+00,2.529591623496010744e+00
1.927738428115844727e+00,2.531781498406111997e+00
1.929735898971557617e+00,2.534545366113825526e+00
1.931733608245849609e+00,2.536983196375750982e+00
1.933732986450195312e+00,2.539685671292027269e+00
1.935737848281860352e+00,2.541241948752635427e+00
1.937735319137573242e+00,2.544436162046928462e+00
1.939736604690551758e+00,2.546586697886788375e+00
1.941735744476318359e+00,2.547878330693046145e+00
1.943735837936401367e+00,2.549878066763647588e+00
1.945735216140747070e+00,2.550200527930322814e+00
1.947735309600830078e+00,2.551341360967321670e+00
1.949735164642333984e+00,2.553096121918692951e+00
1.951734542846679688e+00,2.554475969609733887e+00
1.953734159469604492e+00,2.556234306840218018e+00
1.955734729766845703e+00,2.557573027321461190e+00
1.957734346389770508e+00,2.558251924306383707e+00
1.959734678268432617e+00,2.558889098034989651e+00
1.961743593215942383e+00,2.559765882464156483e+00
1.963733434677124023e+00,2.560898966896410833e+00
1.965732812881469727e+00,2.560304112470640270e+00
1.967733383178710938e+00,2.559971518513145305e+00
1.969732761383056641e+00,2.561176128527656637e+00
1.971732854843139648e+00,2.562056489235936318e+00
1.973732948303222656e+00,2.561806745744555691e+00
1.975733518600463867e+00,2.561915822257497588e+00
1.977732419967651367e+00,2.561919398536610437e+00
1.979732513427734375e+00,2.562191195749186967e+00
1.981731891632080078e+00,2.561424083879480840e+00
1.983732700347900391e+00,2.561620183184168731e+00
1.985731840133666992e+00,2.560096688282095023e+00
1.987731933593750000e+00,2.559266991527914037e+00
1.989731073379516602e+00,2.560179538748209360e+00
1.991731643676757812e+00,2.560074038514380312e+00
1.993730306625366211e+00,2.559862442000203409e+00
1.995731115341186523e+00,2.558827109197033600e+00
1.997730493545532227e+00,2.558664388497398967e+00
1.999732017517089844e+00,2.557514614762617988e+00
2.001730203628540039e+00,2.557112283362422467e+00
2.003731012344360352e+00,2.555461234505323809e+00
2.005729913711547852e+00,2.554417557050890686e+00
2.007762670516967773e+00,2.553615278436574876e+00
2.009804010391235352e+00,2.543202345752995530e+00
2.011869907379150391e+00,2.534576956579322360e+00
2.013785839080810547e+00,2.532725040045385345e+00
2.015781164169311523e+00,2.532441917948951460e+00
2.017938613891601562e+00,2.523157897371995251e+00
2.020731687545776367e+00,2.499361932201615843e+00
2.022729396820068359e+00,2.516620459153707134e+00
2.024729490280151367e+00,2.517053784972880681e+00
2.026746511459350586e+00,2.517607512188853480e+00
2.028728485107421875e+00,2.515767516585292629e+00
2.030727863311767578e+00,2.518156471032675814e+00
2.032727479934692383e+00,2.518651785689805411e+00
2.034728765487670898e+00,2.519862356169504825e+00
2.036725997924804688e+00,2.520283761058302208e+00
2.038727045059204102e+00,2.521499099910152086e+00
2.040726661682128906e+00,2.520283165011783399e+00
2.042727470397949219e+00,2.522282901082384843e+00
2.044725656509399414e+00,2.523234787372921506e+00
2.046727657318115234e+00,2.523740234820870842e+00
2.048726081848144531e+00,2.523284259233982585e+00
2.050726890563964844e+00,2.525285783444140453e+00
2.052724599838256836e+00,2.524444165759583303e+00
2.054725885391235352e+00,2.525691095076930015e+00
2.056726455688476562e+00,2.526096406709719577e+00
2.058726072311401367e+00,2.525115910186280122e+00
2.060724973678588867e+00,2.525475326237121454e+00
2.062726020812988281e+00,2.525190416001131144e+00
2.064724445343017578e+00,2.526582184622548244e+00
2.066725969314575195e+00,2.526790800904131107e+00
2.068723678588867188e+00,2.526330056945092384e+00
2.070724487304687500e+00,2.526845637183861459e+00
2.072723627090454102e+00,2.527404728818503532e+00
2.074724435806274414e+00,2.527904811847783595e+00
2.076723098754882812e+00,2.527622881844387326e+00
2.078724861145019531e+00,2.528265419991662544e+00
2.080721855163574219e+00,2.527906003940821211e+00
2.082723140716552734e+00,2.528919879069313925e+00
2.084723711013793945e+00,2.527888122545256966e+00
2.086723804473876953e+00,2.528578940460555646e+00
2.088721990585327148e+00,2.528832260231049123e+00
2.090723276138305664e+00,2.528854909998763834e+00
2.092722415924072266e+00,2.526515427412441728e+00
2.094723224639892578e+00,2.527931633941129963e+00
2.096721887588500977e+00,2.527607384634898313e+00
2.098722934722900391e+00,2.528292242085008912e+00
2.100721597671508789e+00,2.528052035337929215e+00
2.102721929550170898e+00,2.528192702316367946e+00
2.104721307754516602e+00,2.528001967430349328e+00
2.106722831726074219e+00,2.526971999045848793e+00
2.108720302581787109e+00,2.526758614392115465e+00
2.110721826553344727e+00,2.527754012078525125e+00
2.112720251083374023e+00,2.527584138820664794e+00
2.114720821380615234e+00,2.527782026264909110e+00
2.116725444793701172e+00,2.527821365335150450e+00
2.118722438812255859e+00,2.520776691529356572e+00
2.120719909667968750e+00,2.523145976441619087e+00
2.122720718383789062e+00,2.524574699947202294e+00
2.124719619750976562e+00,2.525008621812894649e+00
2.126720190048217773e+00,2.524649801808572125e+00
2.128720283508300781e+00,2.522443833642463051e+00
2.130719900131225586e+00,2.524357142967837309e+00
2.132719278335571289e+00,2.523894610869242161e+00
2.134720563888549805e+00,2.523901763427467859e+00
2.136717557907104492e+00,2.524623575761744565e+00
2.138719558715820312e+00,2.524617615296556483e+00
2.140718460083007812e+00,2.524978819486954240e+00
2.142719268798828125e+00,2.524909082044253683e+00
2.144717216491699219e+00,2.524452510410846617e+00
2.146718740463256836e+00,2.523671093424689094e+00
2.148718357086181641e+00,2.523092332254926351e+00
2.150718450546264648e+00,2.523715200867080899e+00
2.152717590332031250e+00,2.523448172026654834e+00
2.154718160629272461e+00,2.522902193415426542e+00
2.156717300415039062e+00,2.523628178075334905e+00
2.158717870712280273e+00,2.523865404589820560e+00
2.160716533660888672e+00,2.524052563196726329e+00
2.162717103958129883e+00,2.524619999482631716e+00
2.164715766906738281e+00,2.524169388314412732e+00
2.166716098785400391e+00,2.524109783662531914e+00
2.168716192245483398e+00,2.523379626676991894e+00
2.170716524124145508e+00,2.523714008774043283e+00
2.172716140747070312e+00,2.524176540872638430e+00
2.174716949462890625e+00,2.523755135983841047e+00
2.176714897155761719e+00,2.524294558083362450e+00
2.178716182708740234e+00,2.524938884370194092e+00
2.180714130401611328e+00,2.524922791114186271e+00
2.182729244232177734e+00,2.523667517145576245e+00
2.184715509414672852e+00,2.521993222474244067e+00
2.186715126037597656e+00,2.522457542712395639e+00
2.188714504241943359e+00,2.521967592473935316e+00
2.190715789794921875e+00,2.522859874112591161e+00
2.192714452743530273e+00,2.522799077367672727e+00
2.194715499877929688e+00,2.522072496661245555e+00
2.196714162826538086e+00,2.522886100159418721e+00
2.198714494705200195e+00,2.522659602482271612e+00
2.200712919235229492e+00,2.522436681084237353e+00
2.202752828598022461e+00,2.521694603168321169e+00
2.204746246337890625e+00,2.507581413695980643e+00
2.206716537475585938e+00,2.506417930891267076e+00
2.208714723587036133e+00,2.508457602078628668e+00
2.210714340209960938e+00,2.512039841656665828e+00
2.212713479995727539e+00,2.512609066082127640e+00
2.214713811874389648e+00,2.512715162362475496e+00
2.216712474822998047e+00,2.511909307469046837e+00
2.218712568283081055e+00,2.512706817711212182e+00
2.220709800720214844e+00,2.514100970518704514e+00
2.222712755203247070e+00,2.515002788901661290e+00
2.224712371826171875e+00,2.514245809822774902e+00
2.226712703704833984e+00,2.515010537506405797e+00
2.228711366653442383e+00,2.513336838881592428e+00
2.230712890625000000e+00,2.515408100534450853e+00
2.232710838317871094e+00,2.515206040764574880e+00
2.234712123870849609e+00,2.516685428224257226e+00
2.236711502075195312e+00,2.517417373349353671e+00
2.238712310791015625e+00,2.516802253341943629e+00
2.240710258483886719e+00,2.517154516834559264e+00
2.242712259292602539e+00,2.517012657763082917e+00
2.244709968566894531e+00,2.518025936845056822e+00
2.246710538864135742e+00,2.517443599396181231e+00
2.248710155487060547e+00,2.517015041949158149e+00
2.250710725784301758e+00,2.518679799876189396e+00
2.252709150314331055e+00,2.518683972201821053e+00
2.254710912704467773e+00,2.518185677312097415e+00
2.256710767745971680e+00,2.519021930577985291e+00
2.258709430694580078e+00,2.519104184997580820e+00
2.260708570480346680e+00,2.519285979185817315e+00
2.262709617614746094e+00,2.519631090120207251e+00
2.264708042144775391e+00,2.519957127565995325e+00
2.266708612442016602e+00,2.519762816400863858e+00
2.268707990646362305e+00,2.519850435239128661e+00
2.270709037780761719e+00,2.520753445715123053e+00
2.272707462310791016e+00,2.521033587578962898e+00
2.274708986282348633e+00,2.521385851071578532e+00
2.276707649230957031e+00,2.522037925963154681e+00
2.278708934783935547e+00,2.521612944795244449e+00
2.280707597732543945e+00,2.522133889452682798e+00
2.282707691192626953e+00,2.522352042478566592e+00
2.284707069396972656e+00,2.523169222255852606e+00
2.286707639694213867e+00,2.522281708989347226e+00
2.288707017898559570e+00,2.521758976192352453e+00
2.290707588195800781e+00,2.522666158993978502e+00
2.292706489562988281e+00,2.523033323649564341e+00
2.294707536697387695e+00,2.523705068076261160e+00
2.296705961227416992e+00,2.522743048994904758e+00
2.298708677291870117e+00,2.523698511564554270e+00
2.300706624984741211e+00,2.522098722708073115e+00
2.302707195281982422e+00,2.523427310398496548e+00
2.304704904556274414e+00,2.524019780638191879e+00
2.306705474853515625e+00,2.523533406678844404e+00
2.308706045150756836e+00,2.523695531331960229e+00
2.310706377029418945e+00,2.524079981336591505e+00
2.312704324722290039e+00,2.524506750644058162e+00
2.314705610275268555e+00,2.524248066454895412e+00
2.316747665405273438e+00,2.524327936688415708e+00
2.318711280822753906e+00,2.492180763743014893e+00
2.320705175399780273e+00,2.513899506795347349e+00
2.322705030441284180e+00,2.516506018222095964e+00
2.324704885482788086e+00,2.516289653335768595e+00
2.326709270477294922e+00,2.514341177265784211e+00
2.328787326812744141e+00,2.514624895408736904e+00
2.330708980560302734e+00,2.499051391965316782e+00
2.332704544067382812e+00,2.506832779268357569e+00
2.334704160690307617e+00,2.508868278130087504e+00
2.336703777313232422e+00,2.508815229989913576e+00
2.338703632354736328e+00,2.509730757442802940e+00
2.340703010559082031e+00,2.509086431155971297e+00
2.342704057693481445e+00,2.512011231423763036e+00
2.344703674316406250e+00,2.511740030257705314e+00
2.346703529357910156e+00,2.511616052581793213e+00
2.348701715469360352e+00,2.512873710736478472e+00
2.350704193115234375e+00,2.513839306096947723e+00
2.352700948715209961e+00,2.514337600986671362e+00
2.354703426361083984e+00,2.515084447274738011e+00
2.356701135635375977e+00,2.514331640521483280e+00
2.358701944351196289e+00,2.515282930765501135e+00
2.360700845718383789e+00,2.516507210315133580e+00
2.362702369689941406e+00,2.517575921723356647e+00
2.364701032638549805e+00,2.517980637309627401e+00
2.366700649261474609e+00,2.517243327765861682e+00
2.368700981140136719e+00,2.518186869405135031e+00
2.370701551437377930e+00,2.518505754292697407e+00
2.372699260711669922e+00,2.519865932448617674e+00
2.374701261520385742e+00,2.520260515244068689e+00
2.376699447631835938e+00,2.520523967805381904e+00
2.378700494766235352e+00,2.520225348499459006e+00
2.380699634552001953e+00,2.520205082917819528e+00
2.382700920104980469e+00,2.519795002912879500e+00
2.384699106216430664e+00,2.522394361781401972e+00
2.386700391769409180e+00,2.521291675721606840e+00
2.388698577880859375e+00,2.523625793889259672e+00
2.390700101852416992e+00,2.522709670389851500e+00
2.392698764801025391e+00,2.523274126443162846e+00
2.394699335098266602e+00,2.523020210626150561e+00
2.396697282791137695e+00,2.524543109481705461e+00
2.398699045181274414e+00,2.524838748555034318e+00
2.400697469711303711e+00,2.525676193913959811e+00
2.402698993682861328e+00,2.526493969737764633e+00
2.404696464538574219e+00,2.526244226246384006e+00
2.406698465347290039e+00,2.526372972294446573e+00
2.408696651458740234e+00,2.528320852317911704e+00
2.410698890686035156e+00,2.527963820453145605e+00
2.412697315216064453e+00,2.529171410700250977e+00
2.414698362350463867e+00,2.529801431870631223e+00
2.416695833206176758e+00,2.530345026295784283e+00
2.418697834014892578e+00,2.531665269334944401e+00
2.420696020126342773e+00,2.531366053982502695e+00
2.422696590423583984e+00,2.533171478887972672e+00
2.424695968627929688e+00,2.533222142842071367e+00
2.426696777343750000e+00,2.533439103774917545e+00
2.428695678710937500e+00,2.534970943328254567e+00
2.430696725845336914e+00,2.534665767510624779e+00
2.432695150375366211e+00,2.535656992871402782e+00
2.434696674346923828e+00,2.536686961255903316e+00
2.436694383621215820e+00,2.537671630104974430e+00
2.438696146011352539e+00,2.538397614764882793e+00
2.440696001052856445e+00,2.539158170122882030e+00
2.442698001861572266e+00,2.539850180131218327e+00
2.444694280624389648e+00,2.540513579906651831e+00
2.446695089340209961e+00,2.541067903169143438e+00
2.448692798614501953e+00,2.541652624804094263e+00
2.450695276260375977e+00,2.542490666209538563e+00
2.452693939208984375e+00,2.544117873205884894e+00
2.454695224761962891e+00,2.544414108325732560e+00
2.456693172454833984e+00,2.544244831114391037e+00
2.458693504333496094e+00,2.543107574356505030e+00
2.460692405700683594e+00,2.545901244390158968e+00
2.462696552276611328e+00,2.546648686724744426e+00
2.464691400527954102e+00,2.544705575073429760e+00
2.466695547103881836e+00,2.547457521850767570e+00
2.468692541122436523e+00,2.547617858364326970e+00
2.470697402954101562e+00,2.548331922093859170e+00
2.472688436508178711e+00,2.549112743033497885e+00
2.474693775177001953e+00,2.549776738855450198e+00
2.476691484451293945e+00,2.550536698166930627e+00
2.478693246841430664e+00,2.551650709110583115e+00
2.480691671371459961e+00,2.552219337489526119e+00
2.482692718505859375e+00,2.553073472150978240e+00
2.484692335128784180e+00,2.554259604723406518e+00
2.486691951751708984e+00,2.554554051703697759e+00
2.488690614700317383e+00,2.555052346593421397e+00
2.490691661834716797e+00,2.555646604972673153e+00
2.492691516876220703e+00,2.556553191727780394e+00
2.494691371917724609e+00,2.557134933130137178e+00
2.496690511703491211e+00,2.558802671289762465e+00
2.498691082000732422e+00,2.558203048491841436e+00
2.500689268112182617e+00,2.559385604785156865e+00
2.502691507339477539e+00,2.560988373874232060e+00
2.504703044891357422e+00,2.558396763610454094e+00
2.506718158721923828e+00,2.554803795195078386e+00
2.508689880371093750e+00,2.550180262348683335e+00
2.510687828063964844e+00,2.554322785654400185e+00
2.512686252593994141e+00,2.554818696358048591e+00
2.514695644378662109e+00,2.557031221035864554e+00
2.516687154769897461e+00,2.556945390337156176e+00
2.518695354461669922e+00,2.558083839188079800e+00
2.520687580108642578e+00,2.550951546544021120e+00
2.522688388824462891e+00,2.556205100560796417e+00
2.524689197540283203e+00,2.556286162887354330e+00
2.526688575744628906e+00,2.557924694767558016e+00
2.528688669204711914e+00,2.556688494287549851e+00
2.530688285827636719e+00,2.557470507320226183e+00
2.532687902450561523e+00,2.557429380110428419e+00
2.534688711166381836e+00,2.559266395481395229e+00
2.536687374114990234e+00,2.559355206412697648e+00
2.538687705993652344e+00,2.560095496189057407e+00
2.540686845779418945e+00,2.560153908747900608e+00
2.542688131332397461e+00,2.561557598299693872e+00
2.544685840606689453e+00,2.562833137849943377e+00
2.546686649322509766e+00,2.562049336677710620e+00
2.548684835433959961e+00,2.561868138535992934e+00
2.550687313079833984e+00,2.561995692491017884e+00
2.552684783935546875e+00,2.562705583894918426e+00
2.554687976837158203e+00,2.563514419020941126e+00
2.556684970855712891e+00,2.560254640609579191e+00
2.558686733245849609e+00,2.561795420860698336e+00
2.560684442520141602e+00,2.561495013415219013e+00
2.562686204910278320e+00,2.562606044126277460e+00
2.564684867858886719e+00,2.562023110630883060e+00
2.566684961318969727e+00,2.562597699475014146e+00
2.568684577941894531e+00,2.562328882495031657e+00
2.570685148239135742e+00,2.561617798998093498e+00
2.572682857513427734e+00,2.562121458306486410e+00
2.574684381484985352e+00,2.562264509471000373e+00
2.576683282852172852e+00,2.561936087839137066e+00
2.578684806823730469e+00,2.561550445741468174e+00
2.580683708190917969e+00,2.561189837597589225e+00
2.582685232162475586e+00,2.561142153876084571e+00
2.584683179855346680e+00,2.556748098939430669e+00
2.586685180664062500e+00,2.560446567588635425e+00
2.588681459426879883e+00,2.560116357817215693e+00
2.590683221817016602e+00,2.557106322897234385e+00
2.592684030532836914e+00,2.558893270360621308e+00
2.594683885574340820e+00,2.555166191478513760e+00
2.596681833267211914e+00,2.557307786620591550e+00
2.598683357238769531e+00,2.558049864536507734e+00
2.600681543350219727e+00,2.556796974753972940e+00
2.602682590484619141e+00,2.556920356383366233e+00
2.604681491851806641e+00,2.556642002659082813e+00
2.606682300567626953e+00,2.556556768006893243e+00
2.608680486679077148e+00,2.555933899394738695e+00
2.610682010650634766e+00,2.554264969142075792e+00
2.612680196762084961e+00,2.554912871708020283e+00
2.614681482315063477e+00,2.555347389620231446e+00
2.616679906845092773e+00,2.555227584269951002e+00
2.618680953979492188e+00,2.554703659379918612e+00
2.620679616928100586e+00,2.553679055414087351e+00
2.622681379318237305e+00,2.554149336117427005e+00
2.624679327011108398e+00,2.553632563785620313e+00
2.626682043075561523e+00,2.553562230296400948e+00
2.628679037094116211e+00,2.553448981457827394e+00
2.630680322647094727e+00,2.551783627484277339e+00
2.632678985595703125e+00,2.551645940738432650e+00
2.634679794311523438e+00,2.552312916792979003e+00
2.636677742004394531e+00,2.551839655857045308e+00
2.638679504394531250e+00,2.552000588417123517e+00
2.640677452087402344e+00,2.551768130274788327e+00
2.642679452896118164e+00,2.551192349337619625e+00
2.644678354263305664e+00,2.551042145614879963e+00
2.646678924560546875e+00,2.551762765856119053e+00
2.648678302764892578e+00,2.550195759558172348e+00
2.650678634643554688e+00,2.549431627921060262e+00
2.652676343917846680e+00,2.550390070723303815e+00
2.654677629470825195e+00,2.550086683045230451e+00
2.656676292419433594e+00,2.550040191416763413e+00
2.658677816390991211e+00,2.550444907003034167e+00
2.660676479339599609e+00,2.548348611396385799e+00
2.662677764892578125e+00,2.549005454660112413e+00
2.664676427841186523e+00,2.548381393954920249e+00
2.666676998138427734e+00,2.548680609307361955e+00
2.668675661087036133e+00,2.547340100686562359e+00
2.670678853988647461e+00,2.546710079516181668e+00
2.672675371170043945e+00,2.546904986727832387e+00
2.674676418304443359e+00,2.546459143931763425e+00
2.676674604415893555e+00,2.546946709984148960e+00
2.678676366806030273e+00,2.546564644165592473e+00
2.680674552917480469e+00,2.546384638116912402e+00
2.682676553726196289e+00,2.546795314168371238e+00
2.684674501419067383e+00,2.546315496720730653e+00
2.686676025390625000e+00,2.546902602541757155e+00
2.688674211502075195e+00,2.546392386721656909e+00
2.690675497055053711e+00,2.544871872052177242e+00
2.692675113677978516e+00,2.546309536255542572e+00
2.694675922393798828e+00,2.545742099969637184e+00
2.696673870086669922e+00,2.545966213460709060e+00
2.698674917221069336e+00,2.546093767415734010e+00
2.700673580169677734e+00,2.545841043691759342e+00
2.702674388885498047e+00,2.546545570676990611e+00
2.704672574996948242e+00,2.546435302071011098e+00
2.706674575805664062e+00,2.546249335557142945e+00
2.708672761917114258e+00,2.545200889730559357e+00
2.710673809051513672e+00,2.545816605784488207e+00
2.712672948837280273e+00,2.546333378116294899e+00
2.714673280715942383e+00,2.546908563006945236e+00
2.716672420501708984e+00,2.547531431619099784e+00
2.718684434890747070e+00,2.547214334871093833e+00
2.720674037933349609e+00,2.542313044346933726e+00
2.722671747207641602e+00,2.546014493228732523e+00
2.724672317504882812e+00,2.546079462299282614e+00
2.726672887802124023e+00,2.546220725324240153e+00
2.728671312332153320e+00,2.544684117398752665e+00
2.730672121047973633e+00,2.546598618817164539e+00
2.732671976089477539e+00,2.546527689281426365e+00
2.734672307968139648e+00,2.548125093951832731e+00
2.736670732498168945e+00,2.548420136978642780e+00
2.738671779632568359e+00,2.548964327450314649e+00
2.740669727325439453e+00,2.548536366049810376e+00
2.742671251296997070e+00,2.549267715128388012e+00
2.744670391082763672e+00,2.542631333187977294e+00
2.746670961380004883e+00,2.548829620937064000e+00
2.748668909072875977e+00,2.548476761397929558e+00
2.750670671463012695e+00,2.548693722330775735e+00
2.752669095993041992e+00,2.549485868154271806e+00
2.754671096801757812e+00,2.550078338393967137e+00
2.756669044494628906e+00,2.551294869338854632e+00
2.758670806884765625e+00,2.551620906784642706e+00
2.760668754577636719e+00,2.552558487958727973e+00
2.762669324874877930e+00,2.550806707239950732e+00
2.764667510986328125e+00,2.552845186334274707e+00
2.766669034957885742e+00,2.553085989127873212e+00
2.768667936325073242e+00,2.552669948657745103e+00
2.770668506622314453e+00,2.552672332843820335e+00
2.772667169570922852e+00,2.553980654952604290e+00
2.774668693542480469e+00,2.554362124724641525e+00
2.776667833328247070e+00,2.554396695422732400e+00
2.778668165206909180e+00,2.555005854964954359e+00
2.780666828155517578e+00,2.554755515427054924e+00
2.782668352127075195e+00,2.554828233102349522e+00
2.784667015075683594e+00,2.555237121014251933e+00
2.786667346954345703e+00,2.554971880313382293e+00
2.788666486740112305e+00,2.553605145645755137e+00
2.790668010711669922e+00,2.554329342166107075e+00
2.792665719985961914e+00,2.554495043098335749e+00
2.794667720794677734e+00,2.555561370320483583e+00
2.796665906906127930e+00,2.554627961472029973e+00
2.798666954040527344e+00,2.554768032403949896e+00
2.800665855407714844e+00,2.555070824035504451e+00
2.802667140960693359e+00,2.554317421235730912e+00
2.804665088653564453e+00,2.554316825189212103e+00
2.806665658950805664e+00,2.553800648903924220e+00
2.808665037155151367e+00,2.553255266339214735e+00
2.810666322708129883e+00,2.552931017032983085e+00
2.812664747238159180e+00,2.553243345408838572e+00
2.814665555953979492e+00,2.552466696794831513e+00
2.816664457321166992e+00,2.552782005403281040e+00
2.818665027618408203e+00,2.552492922841659073e+00
2.820664644241333008e+00,2.549401825595119853e+00
2.822665214538574219e+00,2.537758056850201616e+00
2.824664354324340820e+00,2.533688251219779364e+00
2.826664209365844727e+00,2.531305853284103069e+00
2.828663825988769531e+00,2.526819411137033899e+00
2.830664157867431641e+00,2.524268928083053698e+00
2.832662582397460938e+00,2.522138657824833263e+00
2.834663867950439453e+00,2.519763412447382667e+00
2.836664199829101562e+00,2.517232002882004327e+00
2.838665008544921875e+00,2.513301076090463937e+00
2.840662240982055664e+00,2.512462438638500828e+00
2.842664003372192383e+00,2.510636748151391373e+00
2.844662189483642578e+00,2.508351505798280812e+00
2.846662044525146484e+00,2.506789863919003380e+00
2.848661899566650391e+00,2.504371703192198595e+00
2.850662708282470703e+00,2.504292429005197107e+00
2.852660417556762695e+00,2.503562868066175895e+00
2.854661941528320312e+00,2.502051890140997159e+00
2.856660366058349609e+00,2.501542866413934973e+00
2.858661890029907227e+00,2.501536309902228084e+00
2.860660552978515625e+00,2.499888837324242274e+00
2.862662315368652344e+00,2.498829066613801331e+00
2.864660501480102539e+00,2.497402727294293356e+00
2.866661787033081055e+00,2.498127519861164103e+00
2.868659734725952148e+00,2.497423588922451643e+00
2.870660781860351562e+00,2.496903836358050910e+00
2.873149156570434570e+00,2.497036754731745134e+00
2.875115633010864258e+00,2.492085396300005584e+00
2.878452777862548828e+00,2.457932526818815244e+00
2.881385803222656250e+00,2.409643222051050859e+00
2.883760213851928711e+00,2.398541259591729702e+00
2.885923862457275391e+00,2.396878885850773688e+00
2.887889862060546875e+00,2.391920970907327249e+00
2.890691757202148438e+00,2.389431284598265037e+00
2.892658948898315430e+00,2.420980622885301248e+00
2.894658327102661133e+00,2.429128578797409510e+00
2.896656513214111328e+00,2.433831981877324857e+00
2.898661136627197266e+00,2.440562539167706824e+00
2.900656938552856445e+00,2.436789564703651045e+00
2.902665376663208008e+00,2.448300415074874614e+00
2.904658794403076172e+00,2.453849608164979212e+00
2.906662940979003906e+00,2.473035749558895713e+00
2.908656358718872070e+00,2.476808724022951491e+00
2.910663366317749023e+00,2.487902341831009778e+00
2.912658929824829102e+00,2.492604552817887509e+00
2.914658069610595703e+00,2.501988113163484684e+00
2.916654825210571289e+00,2.508125008121133703e+00
2.918679237365722656e+00,2.514660062153346587e+00
2.920660018920898438e+00,2.515423597743939865e+00
2.922664880752563477e+00,2.526440325551071897e+00
2.924657106399536133e+00,2.530103031409148162e+00
2.926654338836669922e+00,2.536518876137599410e+00
2.928658962249755859e+00,2.539938395016001937e+00
2.930662155151367188e+00,2.546530073467501598e+00
2.932657003402709961e+00,2.550140923278441996e+00
2.934657812118530273e+00,2.556212849165540923e+00
2.936653852462768555e+00,2.560730881778106927e+00
2.938655853271484375e+00,2.564474649962741104e+00
2.940653562545776367e+00,2.568471737917868758e+00
2.942655801773071289e+00,2.572946855181080572e+00
2.944653034210205078e+00,2.575477072653421295e+00
2.946654319763183594e+00,2.578945467346366538e+00
2.948657035827636719e+00,2.581478665051301302e+00
2.950658798217773438e+00,2.583317468561824537e+00
2.952653884887695312e+00,2.585234354166311643e+00
2.954655408859252930e+00,2.588007162571807296e+00
2.956652879714965820e+00,2.589378069565066109e+00
2.958654642105102539e+00,2.591333102146756939e+00
2.960653543472290039e+00,2.592755865187152065e+00
2.962654113769531250e+00,2.594571422883441780e+00
2.964652538299560547e+00,2.594688844047646992e+00
2.966653585433959961e+00,2.596025180342814931e+00
2.968654632568359375e+00,2.596671294769202998e+00
2.970656394958496094e+00,2.596794080352077483e+00
2.972651958465576172e+00,2.596286844764571722e+00
2.974653005599975586e+00,2.596344661276896115e+00
2.976650953292846680e+00,2.597017597796630550e+00
2.978652477264404297e+00,2.596633147791999274e+00
2.980650186538696289e+00,2.596606325698652906e+00
2.982651710510253906e+00,2.595899414527346405e+00
2.984649896621704102e+00,2.595838617782427971e+00
2.986651420593261719e+00,2.594617318465390010e+00
2.988652229309082031e+00,2.594303797996496908e+00
2.990654706954956055e+00,2.592957328910509229e+00
2.992650270462036133e+00,2.591420124938502934e+00
2.994651556015014648e+00,2.591478537497346135e+00
2.996649980545043945e+00,2.589949082130084346e+00
2.998650550842285156e+00,2.588290284668241181e+00
3.000649929046630859e+00,2.587496350705188686e+00
3.002650737762451172e+00,2.586822222092416634e+00
3.004648447036743164e+00,2.585603903007972715e+00
3.006649971008300781e+00,2.584213922526112039e+00
3.008650541305541992e+00,2.582100341570418234e+00
3.010652542114257812e+00,2.580297300851023490e+00
3.012649297714233398e+00,2.578328559199400072e+00
3.014649868011474609e+00,2.576929638019756830e+00
3.016648530960083008e+00,2.574879237995056691e+00
3.018650054931640625e+00,2.574106761706681290e+00
3.020648002624511719e+00,2.572374650523024719e+00
3.022649049758911133e+00,2.569817014910818820e+00
3.024647235870361328e+00,2.568356104893219971e+00
3.026648283004760742e+00,2.566414185334942921e+00
3.028649806976318359e+00,2.565482564626045736e+00
3.030651569366455078e+00,2.563250370413109103e+00
3.032647371292114258e+00,2.560700483405647709e+00
3.034648656845092773e+00,2.559178776643130426e+00
3.036646127700805664e+00,2.557671971043583348e+00
3.038647890090942383e+00,2.555364674969276884e+00
3.040646553039550781e+00,2.554235762862654191e+00
3.042647600173950195e+00,2.551804489112435625e+00
3.044645547866821289e+00,2.550866907938350359e+00
3.046647310256958008e+00,2.548297947442287104e+00
3.048648834228515625e+00,2.546943729751554919e+00
3.050649881362915039e+00,2.543893163668294211e+00
3.052645921707153320e+00,2.543100421798279331e+00
3.054646968841552734e+00,2.541921441784076752e+00
3.056644678115844727e+00,2.540162508507073813e+00
3.058646202087402344e+00,2.538648550349301036e+00
3.060645103454589844e+00,2.536307279623422506e+00
3.062645435333251953e+00,2.534513775648328693e+00
3.064644336700439453e+00,2.532980744001954054e+00
3.066645383834838867e+00,2.530095878850922464e+00
3.068646669387817383e+00,2.530632320717849826e+00
3.070647954940795898e+00,2.528119984641073348e+00
3.072643518447875977e+00,2.526501122295990331e+00
3.074644565582275391e+00,2.525343003909946038e+00
3.076642513275146484e+00,2.523702683890185927e+00
3.078644752502441406e+00,2.522448602014613517e+00
3.080642700195312500e+00,2.520042362218184895e+00
3.082643985748291016e+00,2.519407572675654183e+00
3.084642887115478516e+00,2.517506780327174898e+00
3.086643934249877930e+00,2.516729535666649031e+00
3.088644742965698242e+00,2.515077294716512313e+00
3.090646266937255859e+00,2.511666120489373100e+00
3.092642545700073242e+00,2.509935797445272954e+00
3.094642400741577148e+00,2.509153188366077813e+00
3.096642017364501953e+00,2.507915795793032032e+00
3.098642349243164062e+00,2.507201136016981025e+00
3.100642442703247070e+00,2.505519688787423149e+00
3.102643728256225586e+00,2.504253089934955767e+00
3.104640722274780273e+00,2.503938377373025048e+00
3.106642723083496094e+00,2.503273785504553928e+00
3.108643293380737305e+00,2.502517998518705156e+00
3.110645771026611328e+00,2.500722110357536110e+00
3.112640142440795898e+00,2.499139606850100392e+00
3.114640951156616211e+00,2.499231994060515660e+00
3.116638898849487305e+00,2.500256598026346921e+00
3.118652105331420898e+00,2.499032914523233728e+00
3.120643854141235352e+00,2.491706906760562390e+00
3.122640848159790039e+00,2.497667371948644188e+00
3.124638795852661133e+00,2.497443854504091121e+00
3.126639366149902344e+00,2.497271597060155557e+00
3.128643989562988281e+00,2.496540844028096728e+00
3.130645751953125000e+00,2.496872245892554076e+00
3.132648468017578125e+00,2.496694027983430431e+00
3.134641647338867188e+00,2.497745454042608060e+00
3.136639356613159180e+00,2.499081194291257191e+00
3.138640403747558594e+00,2.499465644295888467e+00
3.140639543533325195e+00,2.500068247326403537e+00
3.142640829086303711e+00,2.500450909191478388e+00
3.144638776779174805e+00,2.500682771287294770e+00
3.146639823913574219e+00,2.500935495011269438e+00
3.148641586303710938e+00,2.500756085009108176e+00
3.150643348693847656e+00,2.499310076154479532e+00
3.152639389038085938e+00,2.498176991722225182e+00
3.154639482498168945e+00,2.498916089405547325e+00
3.156637430191040039e+00,2.498253285676632629e+00
3.158639907836914062e+00,2.496970593568157426e+00
3.160639047622680664e+00,2.497412860085113095e+00
3.162638187408447266e+00,2.496241628675655022e+00
3.164636850357055664e+00,2.495211064244635679e+00
3.166637897491455078e+00,2.494817077495703472e+00
3.168640136718750000e+00,2.491804658389646931e+00
3.170640707015991211e+00,2.491581140945093864e+00
3.172637701034545898e+00,2.490983306286729260e+00
3.174638509750366211e+00,2.492041884904132587e+00
3.176635503768920898e+00,2.491720019783976170e+00
3.178637742996215820e+00,2.490998207449699464e+00
3.180634737014770508e+00,2.491285501871765007e+00
3.182636737823486328e+00,2.491576372572943399e+00
3.184634685516357422e+00,2.492087184439562009e+00
3.186636209487915039e+00,2.492187320254721783e+00
3.188637733459472656e+00,2.493372856780631253e+00
3.190639019012451172e+00,2.493616639806823798e+00
3.192636489868164062e+00,2.493656574923583946e+00
3.194636821746826172e+00,2.496750652402717208e+00
3.196634531021118164e+00,2.498485147772449011e+00
3.198636054992675781e+00,2.500115335001389383e+00
3.200634241104125977e+00,2.502324879446611305e+00
3.202635288238525391e+00,2.504406273890289469e+00
3.204633235931396484e+00,2.507504523695054388e+00
3.206634759902954102e+00,2.510668934663407015e+00
3.208635091781616211e+00,2.512349785846446082e+00
3.210648298263549805e+00,2.514182032845262427e+00
3.212634801864624023e+00,2.517211737300364849e+00
3.214634895324707031e+00,2.521257105023515965e+00
3.216632604598999023e+00,2.523906531799618325e+00
3.218635320663452148e+00,2.527363601608705768e+00
3.220632314682006836e+00,2.531277839097719085e+00
3.222633838653564453e+00,2.534700934255234461e+00
3.224632501602172852e+00,2.537024919632067554e+00
3.226634025573730469e+00,2.541120951309317366e+00
3.228634595870971680e+00,2.544493382512734048e+00
3.230635166168212891e+00,2.547630375341221942e+00
3.232633352279663086e+00,2.550487226305869548e+00
3.234633207321166992e+00,2.555216855432612455e+00
3.236630916595458984e+00,2.558338351051610893e+00
3.238633155822753906e+00,2.561713166441102807e+00
3.240631103515625000e+00,2.564344115775122113e+00
3.242632627487182617e+00,2.569132157460708221e+00
3.244630575180053711e+00,2.571847745400398288e+00
3.246632099151611328e+00,2.574544855898005302e+00
3.248633146286010742e+00,2.578675458273346432e+00
3.250636339187622070e+00,2.579281041536455543e+00
3.252632379531860352e+00,2.582272599014353798e+00
3.254631996154785156e+00,2.586251805573917206e+00
3.256630659103393555e+00,2.586887191162966726e+00
3.258632183074951172e+00,2.590698908650745036e+00
3.260629892349243164e+00,2.591917823781707764e+00
3.262631177902221680e+00,2.594300221717384058e+00
3.264628887176513672e+00,2.596276115927233175e+00
3.266630411148071289e+00,2.597702455246741149e+00
3.268632650375366211e+00,2.599211048985844652e+00
3.270633935928344727e+00,2.597709011758448039e+00
3.272975683212280273e+00,2.600027036670093050e+00
3.274870634078979492e+00,2.598121475949463299e+00
3.277628421783447266e+00,2.575764367075486838e+00
3.279646873474121094e+00,2.590574334928314126e+00
3.281628131866455078e+00,2.591998886108265676e+00
3.283629417419433594e+00,2.593775700780832860e+00
3.285627126693725586e+00,2.594387244509130053e+00
3.287631988525390625e+00,2.594469498928725582e+00
3.289634227752685547e+00,2.595380258009464480e+00
3.291640281677246094e+00,2.595017265679510299e+00
3.293628454208374023e+00,2.594703149164098388e+00
3.295634984970092773e+00,2.594417642881589270e+00
3.297629356384277344e+00,2.594688248001128184e+00
3.299636125564575195e+00,2.594627451256209749e+00
3.301624774932861328e+00,2.591289590750883942e+00
3.303634643554687500e+00,2.593398403334427282e+00
3.305626153945922852e+00,2.591898750293105902e+00
3.307632207870483398e+00,2.591690134011523039e+00
3.309629917144775391e+00,2.591611455871040359e+00
3.311634063720703125e+00,2.589770268174441892e+00
3.313623189926147461e+00,2.588909577001282880e+00
3.315673589706420898e+00,2.587862919314255716e+00
3.317624807357788086e+00,2.585938285105024104e+00
3.320147752761840820e+00,2.594404529858175490e+00
3.322728633880615234e+00,2.522075476893839596e+00
3.324695825576782227e+00,2.513323725858178648e+00
3.326683759689331055e+00,2.503513396205114816e+00
3.328703880310058594e+00,2.489263712079967661e+00
3.330694437026977539e+00,2.476936874024495250e+00
3.332686185836791992e+00,2.466957863206608703e+00
3.334692716598510742e+00,2.460733349410694881e+00
3.336712837219238281e+00,2.450065308817065635e+00
3.338763952255249023e+00,2.441443495922505313e+00
3.340785741806030273e+00,2.436290673767408599e+00
3.342767238616943359e+00,2.432025364878817264e+00
3.344762802124023438e+00,2.423071554073280787e+00
3.346753358840942383e+00,2.419287254725367209e+00
3.348751306533813477e+00,2.415998866081102481e+00
3.350767135620117188e+00,2.411471296724235547e+00
3.352751255035400391e+00,2.407494474350747371e+00
3.354711771011352539e+00,2.400780010316373225e+00
3.356684923171997070e+00,2.395902561652965890e+00
3.358711957931518555e+00,2.395829247931152484e+00
3.360718488693237305e+00,2.389540957157725742e+00
3.362728357315063477e+00,2.393177436968974892e+00
3.364641189575195312e+00,2.393585132787839687e+00
3.366627216339111328e+00,2.427874496921837100e+00
3.368627786636352539e+00,2.442974739429323527e+00
3.370626688003540039e+00,2.451678210696960569e+00
3.372621297836303711e+00,2.459680731258479636e+00
3.374620914459228516e+00,2.469364699049556133e+00
3.376619338989257812e+00,2.478762564511604705e+00
3.378620624542236328e+00,2.486445604139042587e+00
3.380619764328002930e+00,2.495380341455977202e+00
3.382619857788085938e+00,2.503498495042144611e+00
3.384618759155273438e+00,2.510647476988729920e+00
3.386620044708251953e+00,2.517771424981525730e+00
3.388644933700561523e+00,2.523900571334430243e+00
3.390628814697265625e+00,2.531785670731743654e+00
3.392618656158447266e+00,2.537426058939225459e+00
3.394619464874267578e+00,2.543477123198166101e+00
3.396616697311401367e+00,2.549444740944474042e+00
3.398619174957275391e+00,2.554802007055521962e+00
3.400617361068725586e+00,2.560215897585856659e+00
3.402618646621704102e+00,2.565594025325062866e+00
3.404616594314575195e+00,2.570889302598154735e+00
3.406618595123291016e+00,2.574556180781862658e+00
3.408616781234741211e+00,2.578798243856220918e+00
3.410624265670776367e+00,2.582793543671792147e+00
3.412618637084960938e+00,2.585795829987028949e+00
3.414617776870727539e+00,2.589273165377755870e+00
3.416615962982177734e+00,2.592646192627691359e+00
3.418617248535156250e+00,2.595303964055057033e+00
3.420615434646606445e+00,2.597784113619817870e+00
3.422617197036743164e+00,2.600402545976942204e+00
3.424614906311035156e+00,2.602184725068178661e+00
3.426616191864013672e+00,2.604385924862137269e+00
3.428614616394042969e+00,2.605659080226311541e+00
3.430637359619140625e+00,2.606951905125606483e+00
3.432616233825683594e+00,2.607195092105280221e+00
3.434615612030029297e+00,2.608248306304014275e+00
3.436614274978637695e+00,2.608764482589302158e+00
3.438615560531616211e+00,2.608761502356708117e+00
3.440613746643066406e+00,2.609327150503057080e+00
3.442614555358886719e+00,2.608737064449436982e+00
3.444613695144653320e+00,2.609436227015999421e+00
3.446614503860473633e+00,2.607990218161370333e+00
3.448612689971923828e+00,2.607760144205110375e+00
3.450617790222167969e+00,2.606631828145006491e+00
3.452616691589355469e+00,2.605005813241697776e+00
3.454616308212280273e+00,2.603888226018932439e+00
3.456612110137939453e+00,2.603761864156945105e+00
3.458613634109497070e+00,2.603029919031848660e+00
3.460611581802368164e+00,2.600570035048727302e+00
3.462626695632934570e+00,2.599421453406983940e+00
3.464612722396850586e+00,2.596437644533830191e+00
3.466613531112670898e+00,2.595576953360671180e+00
3.468610763549804688e+00,2.594349693578445137e+00
3.470617294311523438e+00,2.593174289843355407e+00
3.472620725631713867e+00,2.588855932814590144e+00
3.474613428115844727e+00,2.588896463977869100e+00
3.476609706878662109e+00,2.587282966051455357e+00
3.478612422943115234e+00,2.586333463946993927e+00
3.480611801147460938e+00,2.582980106232179107e+00
3.482612133026123047e+00,2.583764503450930672e+00
3.484610080718994141e+00,2.581861326916376154e+00
3.486611366271972656e+00,2.580426642945604865e+00
3.488609075546264648e+00,2.579249451070958710e+00
3.490616083145141602e+00,2.577735492913185489e+00
3.492613792419433594e+00,2.576632210806871548e+00
3.494611978530883789e+00,2.575454422885706585e+00
3.496609449386596680e+00,2.574752876133069357e+00
3.498611927032470703e+00,2.574571677991351670e+00
3.500609159469604492e+00,2.573361107511652257e+00
3.502627134323120117e+00,2.572655388433383372e+00
3.504647970199584961e+00,2.562790818547107996e+00
3.506630659103393555e+00,2.557225532200996021e+00
3.508610963821411133e+00,2.557376928016773299e+00
3.510657072067260742e+00,2.560592598985743429e+00
3.512608289718627930e+00,2.559260435016207147e+00
3.514609575271606445e+00,2.561216659690935593e+00
3.516609668731689453e+00,2.559510774554106582e+00
3.519148588180541992e+00,2.560455508286417547e+00
3.521036863327026367e+00,2.558273381981060801e+00
3.523608684539794922e+00,2.544457619721605557e+00
3.525607347488403320e+00,2.551748460739667657e+00
3.527606964111328125e+00,2.552984661219675822e+00
3.529612064361572266e+00,2.554529017749907815e+00
3.531609296798706055e+00,2.555436796598052673e+00
3.533606052398681641e+00,2.555334872643336475e+00
3.535609722137451172e+00,2.556774324986258229e+00
3.537608623504638672e+00,2.558625049427157627e+00
3.539608955383300781e+00,2.559328384319351279e+00
3.541607856750488281e+00,2.561652369696184373e+00
3.543607234954833984e+00,2.563519783439610400e+00
3.545607089996337891e+00,2.562372989937423462e+00
3.547607660293579102e+00,2.564307160890956006e+00
3.549612283706665039e+00,2.565893836724023380e+00
3.551609277725219727e+00,2.567597933721295966e+00
3.553606510162353516e+00,2.567659326512733209e+00
3.555608034133911133e+00,2.570193716310705589e+00
3.557606697082519531e+00,2.571164080043325306e+00
3.559607028961181641e+00,2.572423526337566990e+00
3.561606884002685547e+00,2.573904701936805317e+00
3.563606977462768555e+00,2.575660058934695407e+00
3.565605878829956055e+00,2.576384851501566153e+00
3.567605495452880859e+00,2.577510187329075997e+00
3.569609403610229492e+00,2.578668305715120734e+00
3.571606636047363281e+00,2.579880068287857764e+00
3.573605298995971680e+00,2.579409191537999302e+00
3.575605869293212891e+00,2.581051895743834645e+00
3.577604770660400391e+00,2.581183025977972445e+00
3.579605817794799805e+00,2.581411311794675978e+00
3.581604480743408203e+00,2.582316706456745603e+00
3.583604812622070312e+00,2.582769105764521012e+00
3.585603713989257812e+00,2.583785365079088958e+00
3.587604045867919922e+00,2.584168622990682618e+00
3.589608192443847656e+00,2.584283659968812596e+00
3.591605663299560547e+00,2.582554529017750067e+00
3.593614339828491211e+00,2.583046267395766815e+00
3.595607042312622070e+00,2.579489657818038406e+00
3.597603559494018555e+00,2.583413432051352654e+00
3.599603652954101562e+00,2.583749006241441659e+00
3.601603031158447266e+00,2.583001563906856202e+00
3.603603124618530273e+00,2.582179615757419722e+00
3.605602979660034180e+00,2.582478235063342620e+00
3.607602119445800781e+00,2.582897255766064770e+00
3.609602212905883789e+00,2.582385847852927352e+00
3.611605644226074219e+00,2.581544230168370202e+00
3.613602876663208008e+00,2.579643437819890917e+00
3.615602493286132812e+00,2.579487869678481982e+00
3.617602109909057617e+00,2.579728076425561678e+00
3.619601011276245117e+00,2.578769037576799317e+00
3.621601104736328125e+00,2.578834006647349408e+00
3.623602151870727539e+00,2.577120372905775447e+00
3.625600814819335938e+00,2.577133485929189227e+00
3.627601146697998047e+00,2.576442071967371739e+00
3.629600048065185547e+00,2.575238654045898024e+00
3.631603002548217773e+00,2.574267098220240690e+00
3.633600950241088867e+00,2.572676846108060467e+00
3.635600090026855469e+00,2.572476574477740918e+00
3.637599945068359375e+00,2.571498462140376695e+00
3.639600038528442383e+00,2.570521541896050088e+00
3.641599655151367188e+00,2.569441505603969667e+00
3.643599748611450195e+00,2.569219776298973024e+00
3.645599603652954102e+00,2.567835756282300430e+00
3.647599697113037109e+00,2.566749759525031926e+00
3.649599552154541016e+00,2.566181727192607731e+00
3.651601552963256836e+00,2.565869398816752245e+00
3.653599023818969727e+00,2.563737936465494194e+00
3.655598878860473633e+00,2.563458390648173157e+00
3.657597780227661133e+00,2.561840720396127757e+00
3.659598827362060547e+00,2.562002845049243582e+00
3.661597967147827148e+00,2.560227818516232823e+00
3.663598299026489258e+00,2.558780617568566562e+00
3.665598154067993164e+00,2.558116621746614250e+00
3.667598009109497070e+00,2.556399411725927884e+00
3.669597387313842773e+00,2.556369609399987475e+00
3.671600580215454102e+00,2.555534548227137215e+00
3.673597335815429688e+00,2.553458518202128325e+00
3.675596952438354492e+00,2.551519578876445316e+00
3.677595853805541992e+00,2.552416628887251626e+00
3.679596424102783203e+00,2.551035589103173074e+00
3.681596755981445312e+00,2.550628489330827087e+00
3.683596611022949219e+00,2.550007408858228963e+00
3.685596227645874023e+00,2.549064463265474423e+00
3.687596082687377930e+00,2.548575109073532907e+00
3.689596176147460938e+00,2.547115391148971675e+00
3.691599369049072266e+00,2.546258872301443876e+00
3.693595647811889648e+00,2.545282548103636078e+00
3.695595741271972656e+00,2.544481461582357884e+00
3.697594642639160156e+00,2.544122045531516552e+00
3.699595212936401367e+00,2.543368046685224204e+00
3.701594114303588867e+00,2.542159264345081215e+00
3.703594446182250977e+00,2.541573350617092775e+00
3.705594062805175781e+00,2.541241948752635427e+00
3.707594633102416992e+00,2.540563051767712910e+00
3.709594011306762695e+00,2.539667193849944216e+00
3.711596727371215820e+00,2.538870875700816487e+00
3.713594436645507812e+00,2.537812297083413160e+00
3.715593576431274414e+00,2.536884848700147632e+00
3.717593669891357422e+00,2.536606494975864212e+00
3.719604730606079102e+00,2.536246482878504072e+00
3.721594810485839844e+00,2.533471886333451994e+00
3.723591566085815430e+00,2.533914748896926472e+00
3.725590467453002930e+00,2.533054057723767460e+00
3.727591037750244141e+00,2.532874051675087390e+00
3.729590415954589844e+00,2.533127967492099675e+00
3.731623411178588867e+00,2.532334629575565987e+00
3.733591794967651367e+00,2.531014386536405869e+00
3.735594034194946289e+00,2.530708614672257273e+00
3.737592458724975586e+00,2.530362907691348529e+00
3.739591360092163086e+00,2.530171576758811103e+00
3.741591930389404297e+00,2.528903785813306104e+00
3.743591308593750000e+00,2.529238167910357493e+00
3.745591402053833008e+00,2.528779808137394003e+00
3.747591733932495117e+00,2.528880539999072585e+00
3.749591350555419922e+00,2.528776827904799962e+00
3.751595973968505859e+00,2.528819743254154151e+00
3.753592014312744141e+00,2.526865306718982129e+00
3.755591392517089844e+00,2.527635994867801106e+00
3.757594108581542969e+00,2.528202835107187685e+00
3.759590148925781250e+00,2.528384629295424180e+00
3.761589765548706055e+00,2.528103891385065527e+00
3.763589620590209961e+00,2.528283301387226789e+00
3.765589714050292969e+00,2.527838650684195887e+00
3.767590045928955078e+00,2.527969184871814878e+00
3.769589424133300781e+00,2.524908485997734875e+00
3.771594285964965820e+00,2.525752487868367258e+00
3.773590326309204102e+00,2.526418271829875994e+00
3.775589704513549805e+00,2.525453868562444359e+00
3.777588367462158203e+00,2.524793449019604896e+00
3.779588460922241211e+00,2.526873651370245444e+00
3.781587600708007812e+00,2.527392211841608560e+00
3.783588647842407227e+00,2.527488771377655485e+00
3.785587787628173828e+00,2.528459731156794010e+00
3.787587642669677734e+00,2.528437081389079299e+00
3.789587736129760742e+00,2.528800669765552289e+00
3.791590929031372070e+00,2.529029551628774630e+00
3.793588638305664062e+00,2.528661194880151175e+00
3.795587301254272461e+00,2.528678480229196612e+00
3.797587871551513672e+00,2.530405226994183909e+00
3.799587726593017578e+00,2.530303303039467711e+00
3.801586151123046875e+00,2.531283203516388358e+00
3.803586483001708984e+00,2.531848255616218513e+00
3.805586576461791992e+00,2.531764213057066559e+00
3.807586431503295898e+00,2.532026473525342158e+00
3.809585809707641602e+00,2.532748881906137672e+00
3.811588287353515625e+00,2.533504668891986444e+00
3.813586235046386719e+00,2.532487217484380881e+00
3.815586328506469727e+00,2.534704510534347310e+00
3.817585706710815430e+00,2.535816137291924566e+00
3.819586515426635742e+00,2.535400692868315264e+00
3.821584939956665039e+00,2.536419336368958444e+00
3.823666572570800781e+00,2.535982434270672048e+00
3.825882434844970703e+00,2.457136804716206324e+00
3.828217983245849609e+00,2.430719426956108542e+00
3.830865859985351562e+00,2.409330297628676565e+00
3.832896232604980469e+00,2.398746299594199716e+00
3.835843801498413086e+00,2.360524220529105932e+00
3.837933778762817383e+00,2.354266924174657216e+00
3.840762615203857422e+00,2.338766734453050500e+00
3.842798709869384766e+00,2.321092167030831099e+00
3.844778537750244141e+00,2.346390169428607120e+00
3.846750020980834961e+00,2.358796877717599383e+00
3.848661661148071289e+00,2.363177223584321140e+00
3.850639581680297852e+00,2.364291234527973629e+00
3.852576732635498047e+00,2.363973541733448869e+00
3.854612588882446289e+00,2.369312926448932544e+00
3.856642007827758789e+00,2.366642041998153090e+00
3.858631134033203125e+00,2.367461009914995529e+00
3.860686302185058594e+00,2.351475638327078510e+00
3.862654924392700195e+00,2.360131425873211342e+00
3.864620685577392578e+00,2.373103782308552567e+00
3.866630792617797852e+00,2.377965137715952082e+00
3.868636846542358398e+00,2.376446411186028840e+00
3.870631217956542969e+00,2.385407374549791015e+00
3.872627258300781250e+00,2.386201308512843511e+00
3.874632358551025391e+00,2.392652916032423693e+00
3.876622915267944336e+00,2.395662950952405001e+00
3.878633022308349609e+00,2.399933028213146802e+00
3.880623102188110352e+00,2.403363275928887877e+00
3.882623910903930664e+00,2.410774518343748785e+00
3.884616136550903320e+00,2.410906244624405392e+00
3.886624336242675781e+00,2.418626239136008937e+00
3.888620138168334961e+00,2.420565178461691946e+00
3.890623092651367188e+00,2.427783897850978256e+00
3.892630577087402344e+00,2.431025794866775946e+00
3.894665241241455078e+00,2.434134177462360604e+00
3.896610021591186523e+00,2.438077025184276714e+00
3.898614645004272461e+00,2.445370846434932410e+00
3.900607824325561523e+00,2.447222762968869425e+00
3.902611017227172852e+00,2.454235250262648105e+00
3.904607772827148438e+00,2.457454497510731084e+00
3.906621456146240234e+00,2.462804015017034498e+00
3.908611536026000977e+00,2.464343603175116026e+00
3.910642623901367188e+00,2.469964321847477162e+00
3.912715911865234375e+00,2.475830015639068460e+00
3.914746522903442383e+00,2.449240976481553922e+00
3.916766643524169922e+00,2.435507468641694651e+00
3.918715715408325195e+00,2.430197290205632576e+00
3.920698642730712891e+00,2.438280277047190303e+00
3.922717571258544922e+00,2.397641229348329350e+00
3.924722433090209961e+00,2.415215064908869724e+00
3.926729440689086914e+00,2.411740113704218036e+00
3.928728342056274414e+00,2.407861042959814402e+00
3.930675029754638672e+00,2.425951650852161912e+00
3.932626962661743164e+00,2.440642409401227120e+00
3.934643745422363281e+00,2.447790795301293620e+00
3.936615228652954102e+00,2.455883318887152722e+00
3.938610553741455078e+00,2.455790931676737454e+00
3.940670728683471680e+00,2.464633877829775610e+00
3.942725181579589844e+00,2.481543121521844864e+00
3.944757223129272461e+00,2.483617959453816137e+00
3.946791887283325195e+00,2.483470139917151709e+00
3.948906421661376953e+00,2.490752636283950494e+00
3.951757192611694336e+00,2.484695611559821771e+00
3.953806400299072266e+00,2.451270514878095774e+00
3.955758094787597656e+00,2.472857531649772067e+00
3.957660198211669922e+00,2.499146163361807282e+00
3.959601640701293945e+00,2.503667772253486135e+00
3.961590290069580078e+00,2.505795062279112528e+00
3.963631391525268555e+00,2.514390053080326481e+00
3.965592622756958008e+00,2.509934009305716529e+00
3.967625617980957031e+00,2.520476880130396058e+00
3.969617843627929688e+00,2.518798413133432224e+00
3.971600055694580078e+00,2.523303928769103255e+00
3.973600387573242188e+00,2.526573839971284929e+00
3.975595235824584961e+00,2.530505958855862492e+00
3.977652072906494141e+00,2.534268204482579723e+00
3.979650020599365234e+00,2.521492543398445196e+00
3.981576919555664062e+00,2.537193600796890269e+00
3.983572244644165039e+00,2.584632943228834190e+00
3.985569477081298828e+00,2.596334528486076376e+00
3.987570762634277344e+00,2.610564543076103305e+00
3.989568710327148438e+00,2.622526600662064666e+00
3.991571187973022461e+00,2.633311466373379872e+00
3.993568420410156250e+00,2.641294317399778269e+00
3.995571374893188477e+00,2.651943880551324018e+00
3.997567892074584961e+00,2.660236675767502224e+00
3.999567747116088867e+00,2.668518742146341882e+00
4.001567602157592773e+00,2.676658353407186830e+00
4.003572940826416016e+00,2.683174333950797852e+00
4.005567312240600586e+00,2.685375533744756460e+00
4.007567405700683594e+00,2.691960059638030422e+00
4.009566545486450195e+00,2.697072350629848181e+00
4.011567831039428711e+00,2.701791250919252541e+00
4.013566255569458008e+00,2.704805458164865950e+00
4.015568017959594727e+00,2.708302463090713541e+00
4.017565727233886719e+00,2.708068812855340735e+00
4.019571304321289062e+00,2.712141598718357027e+00
4.021569013595581055e+00,2.713313426174333909e+00
4.023568391799926758e+00,2.715589131783143539e+00
4.025568723678588867e+00,2.715275611314250437e+00
4.027568340301513672e+00,2.715693439923934971e+00
4.029567956924438477e+00,2.715322698989236283e+00
4.031568288803100586e+00,2.714313592232894035e+00
4.033567905426025391e+00,2.713025535705749558e+00
4.035566806793212891e+00,2.712133850113612521e+00
4.037566661834716797e+00,2.709789003108621142e+00
4.039566516876220703e+00,2.707892979132292322e+00
4.041566371917724609e+00,2.705344880264387353e+00
4.043567180633544922e+00,2.702311599530172082e+00
4.045566082000732422e+00,2.700069272526415709e+00
4.047565937042236328e+00,2.695876681313118972e+00
4.049566268920898438e+00,2.692777239415316437e+00
4.051566362380981445e+00,2.689263545186942217e+00
4.053566455841064453e+00,2.684734783737037667e+00
4.055565357208251953e+00,2.680432519964280225e+00
4.057565689086914062e+00,2.677027306202329093e+00
4.059565305709838867e+00,2.672537287776147075e+00
4.061564922332763672e+00,2.667734940974109126e+00
4.063565492630004883e+00,2.662887294636642199e+00
4.065564393997192383e+00,2.658097464811499666e+00
4.067564725875854492e+00,2.653512674988827147e+00
4.069564580917358398e+00,2.648282962832804177e+00
4.071564435958862305e+00,2.644298391854571495e+00
4.073564052581787109e+00,2.638388590620587948e+00
4.075564146041870117e+00,2.633388952420824936e+00
4.077563524246215820e+00,2.629182652137595610e+00
4.079564332962036133e+00,2.623383119509592021e+00
4.081564188003540039e+00,2.617301656878192162e+00
4.083564043045043945e+00,2.613894654976684606e+00
4.085563659667968750e+00,2.609789086555133863e+00
4.087563514709472656e+00,2.605254364640040787e+00
4.089562892913818359e+00,2.600122404113102359e+00
4.091562271118164062e+00,2.596163463135178429e+00
4.093562841415405273e+00,2.590114783062313020e+00
4.095562219619750977e+00,2.586371014877678842e+00
4.097562074661254883e+00,2.581730196682238354e+00
4.099562168121337891e+00,2.577432701281630933e+00
4.101561784744262695e+00,2.572866984947560276e+00
4.103561639785766602e+00,2.569563695140325343e+00
4.105561256408691406e+00,2.565489121137752626e+00
4.107562065124511719e+00,2.561753101557862955e+00
4.109560728073120117e+00,2.558218545701330449e+00
4.111560821533203125e+00,2.554992741941540579e+00
4.113561391830444336e+00,2.551103538406317206e+00
4.115561008453369141e+00,2.547565406270671851e+00
4.117559671401977539e+00,2.544567292281066262e+00
4.121913671493530273e+00,2.540831868747695399e+00
4.123849153518676758e+00,2.490071951159471553e+00
4.126569747924804688e+00,2.485395966219421382e+00
4.128559827804565430e+00,2.501051724082437033e+00
4.130559682846069336e+00,2.501572668739875382e+00
4.132568359375000000e+00,2.498951852196675816e+00
4.134562969207763672e+00,2.497136294500386100e+00
4.136561632156372070e+00,2.498008906603921275e+00
4.138562202453613281e+00,2.498373091026913073e+00
4.140559911727905273e+00,2.498545348470848637e+00
4.142560243606567383e+00,2.497521340551536184e+00
4.144558906555175781e+00,2.498746216147686994e+00
4.146559953689575195e+00,2.497977912184943250e+00
4.148557901382446289e+00,2.498551308936036719e+00
4.150559902191162109e+00,2.498822510102094441e+00
4.152563333511352539e+00,2.498998939871661662e+00
4.154562473297119141e+00,2.496316134490506045e+00
4.156558275222778320e+00,2.498877942428343601e+00
4.158560752868652344e+00,2.500137388722585285e+00
4.160557985305786133e+00,2.500061094768177838e+00
4.162559747695922852e+00,2.500230968026038170e+00
4.164557218551635742e+00,2.501157820362784889e+00
4.166558265686035156e+00,2.501366436644367752e+00
4.168556690216064453e+00,2.502436340145628435e+00
4.170557498931884766e+00,2.503377497598826551e+00
4.172559738159179688e+00,2.503907382954047023e+00
4.174558639526367188e+00,2.502724230614212786e+00
4.176555395126342773e+00,2.505331338087479764e+00
4.178557634353637695e+00,2.506603301358616420e+00
4.180556535720825195e+00,2.508162559051818619e+00
4.182557821273803711e+00,2.507579625556424219e+00
4.184555530548095703e+00,2.509458960230226410e+00
4.186557054519653320e+00,2.510739268152626380e+00
4.188555479049682617e+00,2.512424887707815913e+00
4.190555572509765625e+00,2.512740792362784248e+00
4.192557573318481445e+00,2.514796556806153660e+00
4.194557189941406250e+00,2.513388098882209931e+00
4.196554183959960938e+00,2.516389789150928369e+00
4.198556423187255859e+00,2.517262401254463544e+00
4.200553894042968750e+00,2.518061699636185313e+00
4.202556610107421875e+00,2.519434394769000551e+00
4.204553842544555664e+00,2.521266045721298088e+00
4.206555128097534180e+00,2.521627249911695845e+00
4.208553791046142578e+00,2.523112001790047021e+00
4.210554599761962891e+00,2.524010839940409756e+00
4.212555885314941406e+00,2.524465623434260397e+00
4.214555263519287109e+00,2.523822489240466371e+00
4.216552495956420898e+00,2.526774707648123286e+00
4.218553781509399414e+00,2.527814808823443560e+00
4.220552206039428711e+00,2.528057399756598489e+00
4.222553730010986328e+00,2.529511157215971640e+00
4.224552392959594727e+00,2.530466619785621152e+00
4.226553678512573242e+00,2.531211081887612568e+00
4.228552579879760742e+00,2.532410923529973434e+00
4.230553388595581055e+00,2.532909218419697073e+00
4.232554197311401367e+00,2.534332577506611006e+00
4.234553337097167969e+00,2.532953325862088878e+00
4.236551046371459961e+00,2.535301749146193107e+00
4.238557577133178711e+00,2.536262576134511892e+00
4.240551471710205078e+00,2.536896173584004988e+00
4.242552518844604492e+00,2.537209694052898090e+00
4.244560241699218750e+00,2.537508313358820988e+00
4.246552705764770508e+00,2.538721864071114442e+00
4.248550653457641602e+00,2.538756434769205317e+00
4.250551939010620117e+00,2.539305393613027650e+00
4.252553224563598633e+00,2.539653484780011627e+00
4.254552364349365234e+00,2.538825576165387066e+00
4.256549835205078125e+00,2.540399735021559469e+00
4.258550643920898438e+00,2.540632789210413467e+00
4.260548591613769531e+00,2.541818921782841745e+00
4.262550830841064453e+00,2.541839187364481223e+00
4.264548063278198242e+00,2.542053168064733359e+00
4.266550540924072266e+00,2.542953794354652519e+00
4.268549203872680664e+00,2.543369238778261820e+00
4.270550251007080078e+00,2.542813127376213789e+00
4.272550821304321289e+00,2.543053334123293485e+00
4.274550437927246094e+00,2.541948263877423120e+00
4.276547908782958984e+00,2.542639081792721800e+00
4.278549194335937500e+00,2.542718952026242096e+00
4.280547618865966797e+00,2.541722362246794820e+00
4.282549142837524414e+00,2.543424671104510981e+00
4.284546852111816406e+00,2.542341058533317710e+00
4.286548614501953125e+00,2.543535535757009303e+00
4.288547039031982422e+00,2.543049161797661828e+00
4.290565490722656250e+00,2.543803160643954175e+00
4.292558193206787109e+00,2.535643879847989002e+00
4.294551372528076172e+00,2.541187112472905074e+00
4.296546697616577148e+00,2.541456525499406371e+00
4.298547983169555664e+00,2.540951078051457035e+00
4.300548553466796875e+00,2.541082208285594835e+00
4.302548646926879883e+00,2.540040318970718136e+00
4.304545164108276367e+00,2.540613119675292797e+00
4.306547164916992188e+00,2.541081612239076026e+00
4.308544874191284180e+00,2.539837663154323355e+00
4.310547113418579102e+00,2.540500466883238051e+00
4.312550306320190430e+00,2.540560667581637677e+00
4.314549684524536133e+00,2.539655272919568052e+00
4.316545248031616211e+00,2.539798920130600823e+00
4.318546295166015625e+00,2.540377681300363566e+00
4.320554733276367188e+00,2.540471856650335258e+00
4.322546005249023438e+00,2.538610403372097313e+00
4.324542999267578125e+00,2.538388674067100670e+00
4.326542854309082031e+00,2.540679876885399313e+00
4.328542232513427734e+00,2.539699976408478665e+00
4.330543041229248047e+00,2.541284864101989616e+00
4.332549095153808594e+00,2.538577024767044055e+00
4.334546566009521484e+00,2.539546792453144963e+00
4.336545705795288086e+00,2.538473908719290240e+00
4.338545560836791992e+00,2.538848225933101777e+00
4.340543508529663086e+00,2.539908592690061528e+00
4.342545032501220703e+00,2.539069359191579611e+00
4.344542503356933594e+00,2.540467088278184793e+00
4.346543312072753906e+00,2.540345494788347924e+00
4.348542690277099609e+00,2.540099327576080146e+00
4.350543737411499023e+00,2.540348475020941965e+00
4.352545738220214844e+00,2.540208404089022043e+00
4.354545831680297852e+00,2.540536825720885350e+00
4.356541633605957031e+00,2.539910976876136761e+00
4.358543395996093750e+00,2.540418212463642522e+00
4.360541105270385742e+00,2.539720838036636952e+00
4.362543106079101562e+00,2.540887897120463368e+00
4.364541292190551758e+00,2.540542786186073432e+00
4.366542100906372070e+00,2.541106050146347162e+00
4.368541002273559570e+00,2.541016643168525935e+00
4.370541810989379883e+00,2.541227047589665222e+00
4.372542619705200195e+00,2.540683453164512162e+00
4.374543428421020508e+00,2.541048829680541576e+00
4.376540660858154297e+00,2.540536825720885350e+00
4.378541946411132812e+00,2.540770475956258156e+00
4.380540132522583008e+00,2.539934818736889088e+00
4.382541179656982422e+00,2.539839451293879780e+00
4.384539365768432617e+00,2.540251319438376232e+00
4.386540412902832031e+00,2.538426821044304393e+00
4.388539552688598633e+00,2.539475862917406790e+00
4.390540361404418945e+00,2.539388244079141987e+00
4.392564296722412109e+00,2.539515798034166938e+00
4.394543647766113281e+00,2.539952104085934526e+00
4.396538734436035156e+00,2.539545004313588539e+00
4.398540258407592773e+00,2.539573614546491331e+00
4.400538921356201172e+00,2.540493910371531161e+00
4.402539491653442383e+00,2.539862697108113299e+00
4.404538154602050781e+00,2.540359203858280512e+00
4.406539201736450195e+00,2.539699380361959857e+00
4.408537387847900391e+00,2.540008728505221303e+00
4.410538434982299805e+00,2.540078465947921860e+00
4.412536859512329102e+00,2.539328043380742361e+00
4.414542198181152344e+00,2.540019457342559850e+00
4.416537761688232422e+00,2.538825576165387066e+00
4.418538808822631836e+00,2.539714281524930062e+00
4.420536518096923828e+00,2.537772361966653012e+00
4.422538757324218750e+00,2.537523810568310001e+00
4.424535989761352539e+00,2.537226979401943527e+00
4.426537990570068359e+00,2.535789315198578198e+00
4.428535699844360352e+00,2.535708252872020285e+00
4.430536985397338867e+00,2.535026971701022536e+00
4.432535171508789062e+00,2.534668151696700011e+00
4.434564590454101562e+00,2.534038130526319765e+00
4.436535835266113281e+00,2.532163564224668040e+00
4.438536405563354492e+00,2.532330457249934330e+00
4.440549850463867188e+00,2.530399266528995827e+00
4.443006753921508789e+00,2.523132863418205307e+00
4.445536136627197266e+00,2.510870398386764180e+00
4.447535037994384766e+00,2.516429724267688517e+00
4.449533700942993164e+00,2.516073884495960034e+00
4.451534032821655273e+00,2.515322269835742475e+00
4.453539371490478516e+00,2.515691818677403990e+00
4.455534458160400391e+00,2.512149514216126533e+00
4.457533836364746094e+00,2.514438928894868752e+00
4.459533214569091797e+00,2.514432372383161862e+00
4.461532354354858398e+00,2.513988913773168576e+00
4.463657855987548828e+00,2.514133753077238964e+00
4.465534925460815430e+00,2.511445583277414073e+00
4.467533588409423828e+00,2.515158357043070225e+00
4.469532489776611328e+00,2.514067591913651256e+00
4.471532106399536133e+00,2.515166105647814732e+00
4.473536729812622070e+00,2.515359820766427390e+00
4.475533723831176758e+00,2.512857617480470651e+00
4.477531671524047852e+00,2.515176238438634471e+00
4.479531288146972656e+00,2.515435518674316029e+00
4.481531143188476562e+00,2.516966166134615879e+00
4.483531713485717773e+00,2.517436446837955533e+00
4.485531091690063477e+00,2.516961397762465413e+00
4.487531423568725586e+00,2.516919078459630033e+00
4.489530324935913086e+00,2.518858017785313042e+00
4.491530418395996094e+00,2.519525589886378203e+00
4.493534803390502930e+00,2.520832719902124541e+00
4.495532512664794922e+00,2.516159715194668411e+00
4.497529983520507812e+00,2.520842852692944280e+00
4.499530553817749023e+00,2.521400156188029928e+00
4.501529216766357422e+00,2.522098126661554307e+00
4.503534317016601562e+00,2.523229422954252232e+00
4.505568742752075195e+00,2.521975937125198630e+00
4.507536888122558594e+00,2.492471038397674477e+00
4.509530067443847656e+00,2.516762318225183481e+00
4.511528968811035156e+00,2.518557610339833719e+00
4.513535022735595703e+00,2.520464363153501086e+00
4.515531063079833984e+00,2.519757451982194585e+00
4.517528533935546875e+00,2.521506848514896593e+00
4.519542694091796875e+00,2.522776427599958016e+00
4.521530389785766602e+00,2.523234787372921506e+00
4.523527383804321289e+00,2.523491683422527831e+00
4.525526046752929688e+00,2.525724473681983273e+00
4.527526855468750000e+00,2.527759376497194399e+00
4.529525995254516602e+00,2.528723183718107226e+00
4.531526088714599609e+00,2.529211345817011125e+00
4.533529758453369141e+00,2.530525628390983162e+00
4.535529613494873047e+00,2.530140582339833077e+00
4.537527322769165039e+00,2.532537881438479577e+00
4.539526700973510742e+00,2.533493940054647897e+00
4.541526556015014648e+00,2.534246150761383820e+00
4.543527364730834961e+00,2.534835640768485110e+00
4.545526027679443359e+00,2.536341850321513380e+00
4.547525882720947266e+00,2.537709777082178153e+00
4.549526691436767578e+00,2.537931506387174796e+00
4.551526069641113281e+00,2.539411489893375506e+00
4.553530693054199219e+00,2.539367978497502509e+00
4.555528879165649414e+00,2.540585105488908813e+00
4.557525396347045898e+00,2.542705839002828316e+00
4.559524774551391602e+00,2.543759649248081178e+00
4.561524629592895508e+00,2.544763987632272961e+00
4.563525199890136719e+00,2.545243805079913546e+00
4.565525054931640625e+00,2.546146219509389130e+00
4.567524671554565430e+00,2.546609347654503086e+00
4.569524049758911133e+00,2.546580141375081485e+00
4.571523666381835938e+00,2.548137610928727703e+00
4.573528289794921875e+00,2.549226587918590248e+00
4.575525999069213867e+00,2.549801772809240141e+00
4.577524423599243164e+00,2.551560110039724272e+00
4.579523801803588867e+00,2.552950090521584947e+00
4.581523656845092773e+00,2.555172151943701842e+00
4.583523035049438477e+00,2.556992478012142023e+00
4.585523366928100586e+00,2.558551139658825413e+00
4.587522983551025391e+00,2.559286661063034707e+00
4.589523315429687500e+00,2.560394115494980305e+00
4.591521739959716797e+00,2.561531372252866312e+00
4.593531131744384766e+00,2.564599819731690822e+00
4.595525026321411133e+00,2.563833303908503503e+00
4.597522497177124023e+00,2.566446371846958563e+00
4.599522829055786133e+00,2.568964668388923123e+00
4.601521968841552734e+00,2.569170304437911945e+00
4.603521347045898438e+00,2.571543761675806117e+00
4.605525493621826172e+00,2.574287959848398977e+00
4.607521533966064453e+00,2.575223156836409011e+00
4.609520912170410156e+00,2.577755162448306159e+00
4.611521005630493164e+00,2.578965136881487208e+00
4.613525152206420898e+00,2.581060836441616768e+00
4.615522384643554688e+00,2.582110474361237973e+00
4.617520809173583984e+00,2.582300613200737782e+00
4.619520902633666992e+00,2.584692547880715008e+00
4.621519565582275391e+00,2.585720728125659118e+00
4.623519420623779297e+00,2.587367604657126119e+00
4.625519752502441406e+00,2.588334988157151795e+00
4.627519607543945312e+00,2.590412806321717110e+00
4.629519224166870117e+00,2.591488074241647066e+00
4.631519556045532227e+00,2.592829178908965471e+00
4.633518457412719727e+00,2.594254326135435829e+00
4.635523319244384766e+00,2.594747852653009002e+00
4.637519359588623047e+00,2.595999550342506179e+00
4.639518976211547852e+00,2.598028492692529223e+00
4.641518831253051758e+00,2.598134588972877079e+00
4.643518209457397461e+00,2.599761795969223410e+00
4.645560503005981445e+00,2.601208996916889671e+00
4.647578477859497070e+00,2.582246372967526238e+00
4.649529933929443359e+00,2.577241966395612316e+00
4.651519775390625000e+00,2.594845008235574735e+00
4.653521776199340820e+00,2.596277904066789599e+00
4.655519723892211914e+00,2.595975112435235044e+00
4.657517910003662109e+00,2.597304892218696093e+00
4.659517765045166016e+00,2.598225784090254731e+00
4.661517620086669922e+00,2.599664044340138869e+00
4.663516998291015625e+00,2.600096178066274799e+00
4.665516614913940430e+00,2.599681925735703114e+00
4.667516469955444336e+00,2.601293039476041624e+00
4.669516324996948242e+00,2.601135683195076265e+00
4.671516656875610352e+00,2.601542186920903443e+00
4.673519372940063477e+00,2.601015877844795821e+00
4.675518274307250977e+00,2.601070714124526173e+00
4.677515983581542969e+00,2.602024388554619261e+00
4.679515838623046875e+00,2.602212739254562646e+00
4.681515455245971680e+00,2.601650071340807724e+00
4.683515548706054688e+00,2.601893258320481461e+00
4.685562849044799805e+00,2.601060581333706434e+00
4.687522172927856445e+00,2.584001133918897519e+00
4.689514636993408203e+00,2.595569204755926673e+00
4.691514253616333008e+00,2.595600199174904699e+00
4.693520069122314453e+00,2.596170615693404127e+00
4.695516824722290039e+00,2.593802522874179228e+00
4.697514533996582031e+00,2.594210814739562831e+00
4.699514389038085938e+00,2.594119619622185180e+00
4.701514005661010742e+00,2.593447279148969553e+00
4.703514337539672852e+00,2.592808913327325993e+00
4.705513715744018555e+00,2.591668080290327136e+00
4.707513570785522461e+00,2.591132234469918583e+00
4.709513187408447266e+00,2.590211342598359945e+00
4.711512565612792969e+00,2.589417408635307449e+00
4.713516712188720703e+00,2.588973353978795355e+00
4.715514421463012695e+00,2.587490986286519412e+00
4.717511892318725586e+00,2.586216638829307524e+00
4.719523191452026367e+00,2.586037228827146262e+00
4.721514225006103516e+00,2.581109712256159039e+00
4.723512172698974609e+00,2.582803676462611886e+00
4.725511074066162109e+00,2.581062624581173193e+00
4.727511167526245117e+00,2.581335017840268531e+00
4.729509353637695312e+00,2.579105803859925938e+00
4.731511831283569336e+00,2.578277299198782568e+00
4.733515977859497070e+00,2.576563665457208607e+00
4.735515356063842773e+00,2.575470516141714405e+00
4.737512588500976562e+00,2.574278423104098046e+00
4.739511966705322266e+00,2.572732874480828436e+00
4.741511821746826172e+00,2.571661182840011328e+00
4.743512630462646484e+00,2.571035930041781548e+00
4.745511293411254883e+00,2.569845625143721612e+00
4.747511625289916992e+00,2.568462201173567827e+00
4.749511241912841797e+00,2.567909666050632644e+00
4.751511096954345703e+00,2.566768236967114980e+00
4.753514528274536133e+00,2.565480776486489312e+00
4.755512237548828125e+00,2.564854927641740723e+00
4.757510662078857422e+00,2.563112683667264413e+00
4.759510517120361328e+00,2.563306994832395880e+00
4.761509656906127930e+00,2.561980195281528871e+00
4.763509988784790039e+00,2.560494847356658887e+00
4.765509366989135742e+00,2.559433884553180327e+00
4.767509222030639648e+00,2.558424777796838079e+00
4.769509077072143555e+00,2.557040757780165485e+00
4.771508693695068359e+00,2.556956715221013532e+00
4.773511409759521484e+00,2.555082148919361806e+00
4.775510072708129883e+00,2.554508752168268337e+00
4.777508497238159180e+00,2.553375667736013988e+00
4.779508113861083984e+00,2.553306526339832239e+00
4.781507730484008789e+00,2.552246755629391295e+00
4.783508777618408203e+00,2.551644152598876225e+00
4.785508394241333008e+00,2.551065391429113483e+00
4.787508249282836914e+00,2.549663490016876644e+00
4.789517641067504883e+00,2.549662297923839027e+00
4.791511058807373047e+00,2.543999855995160875e+00
4.793505668640136719e+00,2.544937437169246142e+00
4.795528411865234375e+00,2.545779650900322100e+00
4.797506332397460938e+00,2.543939655296761249e+00
4.799506902694702148e+00,2.544445698791229393e+00
4.801506042480468750e+00,2.544575040885810768e+00
4.803506374359130859e+00,2.543630903200018611e+00
4.805505514144897461e+00,2.543114726914730728e+00
4.807505369186401367e+00,2.542864387376831292e+00
4.809505462646484375e+00,2.542507355512065192e+00
4.811504840850830078e+00,2.541977470156844721e+00
4.813504457473754883e+00,2.541923229923633176e+00
4.815509319305419922e+00,2.541678254804403014e+00
4.817505598068237305e+00,2.539521758499355020e+00
4.819504022598266602e+00,2.540771668049295773e+00
4.821503639221191406e+00,2.540740077583798939e+00
4.823504447937011719e+00,2.540390198277258538e+00
4.825503826141357422e+00,2.540642922001233206e+00
4.827503919601440430e+00,2.539636795477484998e+00
4.829504251480102539e+00,2.540211980368134892e+00
4.831503629684448242e+00,2.540505235255388516e+00
4.833503246307373047e+00,2.540220921065917015e+00
4.835506439208984375e+00,2.539887135015384434e+00
4.837508201599121094e+00,2.538923327794471607e+00
4.839504718780517578e+00,2.538081114063395649e+00
4.841502666473388672e+00,2.539596860360724850e+00
4.843502998352050781e+00,2.539836471061285739e+00
4.845501899719238281e+00,2.540346090834866732e+00
4.847501993179321289e+00,2.539646332221785929e+00
4.849502086639404297e+00,2.540597622465803784e+00
4.851502418518066406e+00,2.540746038048987021e+00
4.853502273559570312e+00,2.540655438978128178e+00
4.855504512786865234e+00,2.540999953865999306e+00
4.857502698898315430e+00,2.539347116869344223e+00
4.859501600265502930e+00,2.540499274790200435e+00
4.861500978469848633e+00,2.540526692930065611e+00
4.863506317138671875e+00,2.541449968987699481e+00
4.865500926971435547e+00,2.541660969455357577e+00
4.867500782012939453e+00,2.541476791081045850e+00
4.869542837142944336e+00,2.541908924807181780e+00
4.872022151947021484e+00,2.517151536601965223e+00
4.874627590179443359e+00,2.462411816407658716e+00
4.876561641693115234e+00,2.464485462246592373e+00
4.878516912460327148e+00,2.475032505396903115e+00
4.880541563034057617e+00,2.497430145434158533e+00
4.882545232772827148e+00,2.478202876830443824e+00
4.884499311447143555e+00,2.477920946827047555e+00
4.886502265930175781e+00,2.494354545397108325e+00
4.888528108596801758e+00,2.497831880787835246e+00
4.890510320663452148e+00,2.484296856438738654e+00
4.892497777938842773e+00,2.500128448024803163e+00
4.894506216049194336e+00,2.504174411794473087e+00
4.896501302719116211e+00,2.506588400195646216e+00
4.898499488830566406e+00,2.511979044911747394e+00
4.900497198104858398e+00,2.514520587267945473e+00
4.902498960494995117e+00,2.518695893132197217e+00
4.904495000839233398e+00,2.522490325270930089e+00
4.906498432159423828e+00,2.525108757628054423e+00
4.908496379852294922e+00,2.528620663716872219e+00
4.910498619079589844e+00,2.531677190265320565e+00
4.912496566772460938e+00,2.534988228677300004e+00
4.914502143859863281e+00,2.537309233821539056e+00
4.916498899459838867e+00,2.539189760588378864e+00
4.918498516082763672e+00,2.541671698292696124e+00
4.920509338378906250e+00,2.544295495068489732e+00
4.922510147094726562e+00,2.541013662935931894e+00
4.924496889114379883e+00,2.545059626705601818e+00
4.926497936248779297e+00,2.549168771406265854e+00
4.928498029708862305e+00,2.549513286294136982e+00
4.930494070053100586e+00,2.551914757718415139e+00
4.932493686676025391e+00,2.552349275630626302e+00
4.934499979019165039e+00,2.556203908467758801e+00
4.936498403549194336e+00,2.556994266151698447e+00
4.938497781753540039e+00,2.558987445710593001e+00
4.940495252609252930e+00,2.560285038982038408e+00
4.942497014999389648e+00,2.561979599235010063e+00
4.944494485855102539e+00,2.563506670416196620e+00
4.946495532989501953e+00,2.564413853217822670e+00
4.948495149612426758e+00,2.566394515799822251e+00
4.950495481491088867e+00,2.568183251402765599e+00
4.952493906021118164e+00,2.568388291405235613e+00
4.954495668411254883e+00,2.568967648621517164e+00
4.956505298614501953e+00,2.570360609335971880e+00
4.958496332168579102e+00,2.570625850036841520e+00
4.960493087768554688e+00,2.571381637022690292e+00
4.962494611740112305e+00,2.571968146797197541e+00
4.964493036270141602e+00,2.572719165410895847e+00
4.966494321823120117e+00,2.573622771933409048e+00
4.968492269515991211e+00,2.573362895651208682e+00
4.970493555068969727e+00,2.573975035426024682e+00
4.972492456436157227e+00,2.574934670321305852e+00
4.974493980407714844e+00,2.574405977059122996e+00
4.976495504379272461e+00,2.575633236841349039e+00
4.978493928909301758e+00,2.574557968921419082e+00
4.980492115020751953e+00,2.575280377302214596e+00
4.982493638992309570e+00,2.574989506601036204e+00
4.984491348266601562e+00,2.574758240551738631e+00
4.986492395401000977e+00,2.575223156836409011e+00
4.988491058349609375e+00,2.573649594026755416e+00
4.990491867065429688e+00,2.573746749609321149e+00
4.992490768432617188e+00,2.573648401933717800e+00
4.994491577148437500e+00,2.571159907717693649e+00
4.996495008468627930e+00,2.572065898426282082e+00
4.998492717742919922e+00,2.570371934219829235e+00
5.000489950180053711e+00,2.570526906314719362e+00
5.002491950988769531e+00,2.570182391426848234e+00
5.004490137100219727e+00,2.570084043751244884e+00
5.006491184234619141e+00,2.568892546760147333e+00
5.008489131927490234e+00,2.567949005120873984e+00
5.010490179061889648e+00,2.567911454190189069e+00
5.012488365173339844e+00,2.567515679301700438e+00
5.014489889144897461e+00,2.567106791389798026e+00
5.016491413116455078e+00,2.566781349990528760e+00
5.018490314483642578e+00,2.564008541585033107e+00
5.020488739013671875e+00,2.563667602976274829e+00
5.022490262985229492e+00,2.563776083442697917e+00
5.024495601654052734e+00,2.562725253430039096e+00
5.026541233062744141e+00,2.559587068508514029e+00
5.028550863265991211e+00,2.543854420644571679e+00
5.030495643615722656e+00,2.542265956671947880e+00
5.032563686370849609e+00,2.546363776488754116e+00
5.034517049789428711e+00,2.532041374688312363e+00
5.036498546600341797e+00,2.529365125818863635e+00
5.038489818572998047e+00,2.534128133550659800e+00
5.040488481521606445e+00,2.535537783567641146e+00
5.042488336563110352e+00,2.535770837756495144e+00
5.044507980346679688e+00,2.535352413100291802e+00
5.046517372131347656e+00,2.526768151136416396e+00
5.048489093780517578e+00,2.526800337648432038e+00
5.050487518310546875e+00,2.532269660505015896e+00
5.052486896514892578e+00,2.531515661658723548e+00
5.054487466812133789e+00,2.533784810755826289e+00
5.056493759155273438e+00,2.533805672383984575e+00
5.058487176895141602e+00,2.533966008897543976e+00
5.060486316680908203e+00,2.535083000073790505e+00
5.062487363815307617e+00,2.536427084973702950e+00
5.064485549926757812e+00,2.537495796381926016e+00
5.066486835479736328e+00,2.537858788711880198e+00
5.068485021591186523e+00,2.538342182438633632e+00
5.070487260818481445e+00,2.539087836633662665e+00
5.072484493255615234e+00,2.539342348497193758e+00
5.074485540390014648e+00,2.540305559671587776e+00
5.076490163803100586e+00,2.538081114063395649e+00
5.078486680984497070e+00,2.539018099190962108e+00
5.080484151840209961e+00,2.540453975254771013e+00
5.082485914230346680e+00,2.540633385256932275e+00
5.084483385086059570e+00,2.541750972479697612e+00
5.086484193801879883e+00,2.542200987601397788e+00
5.088484287261962891e+00,2.542451327139297224e+00
5.090484380722045898e+00,2.542531793419336328e+00
5.092483043670654297e+00,2.542212312485255143e+00
5.094485521316528320e+00,2.542512123884215658e+00
5.096486806869506836e+00,2.538499538719598991e+00
5.098483324050903320e+00,2.540820543863838044e+00
5.100482463836669922e+00,2.542275493416248811e+00
5.102483510971069336e+00,2.542448942953221991e+00
5.104481697082519531e+00,2.542226617601706540e+00
5.106483697891235352e+00,2.542282049927955700e+00
5.108481645584106445e+00,2.543198769473882681e+00
5.110483646392822266e+00,2.542367284580145270e+00
5.112481594085693359e+00,2.543632691339575036e+00
5.114483833312988281e+00,2.543739979712960508e+00
5.116484165191650391e+00,2.543228571799823090e+00
5.118483304977416992e+00,2.541874950155609714e+00
5.120492696762084961e+00,2.542480533418718824e+00
5.122482299804687500e+00,2.536260787994955468e+00
5.124477624893188477e+00,2.539409105707300274e+00
5.126478195190429688e+00,2.540155355948848115e+00
5.128477811813354492e+00,2.540414040138010865e+00
5.130478143692016602e+00,2.539499704778159117e+00
5.132477521896362305e+00,2.537740771501156178e+00
5.134478807449340820e+00,2.538782064769514069e+00
5.136482954025268555e+00,2.538234894065248159e+00
5.138481855392456055e+00,2.536688749395459741e+00
5.140476942062377930e+00,2.537172739168731983e+00
5.142478704452514648e+00,2.536784116838469050e+00
5.144476890563964844e+00,2.536094491016207986e+00
5.146478652954101562e+00,2.535139028446558473e+00
5.148477315902709961e+00,2.534965578909585293e+00
5.150478839874267578e+00,2.533635203079605436e+00
5.152477502822875977e+00,2.533032004002571558e+00
5.154479026794433594e+00,2.532270256551534704e+00
5.156480312347412109e+00,2.530838552813357456e+00
5.158478498458862305e+00,2.528709474648174638e+00
5.160476207733154297e+00,2.528314295806204814e+00
5.162477493286132812e+00,2.528408471156176507e+00
5.164475440979003906e+00,2.527321282305870387e+00
5.166477203369140625e+00,2.526722851600986974e+00
5.168475151062011719e+00,2.525399628329232815e+00
5.170477390289306641e+00,2.524773183437965418e+00
5.172475099563598633e+00,2.523353996676683142e+00
5.174476623535156250e+00,2.521704139912622100e+00
5.176477909088134766e+00,2.521500292003189703e+00
5.178477764129638672e+00,2.518514694990479530e+00
5.180475473403930664e+00,2.519486846862655671e+00
5.182476043701171875e+00,2.518664898713219191e+00
5.184473991394042969e+00,2.517089547764009172e+00
5.186475276947021484e+00,2.516537012641073989e+00
5.188473224639892578e+00,2.515919508447588715e+00
5.190475225448608398e+00,2.514850797039365204e+00
5.192473411560058594e+00,2.514035405401635614e+00
5.194475412368774414e+00,2.513595523070755178e+00
5.196476221084594727e+00,2.512560786314104178e+00
5.198475122451782227e+00,2.509144247668295691e+00
5.200472831726074219e+00,2.511851490956722444e+00
5.202474355697631836e+00,2.510943712108577586e+00
5.204472541809082031e+00,2.509768904420006663e+00
5.206474542617797852e+00,2.509610952092522496e+00
5.208471536636352539e+00,2.509932817212678913e+00
5.210473537445068359e+00,2.509796918606390648e+00
5.212472200393676758e+00,2.509583533952657319e+00
5.214473485946655273e+00,2.509690226279523984e+00
5.216474533081054688e+00,2.509824336746255824e+00
5.218474388122558594e+00,2.507458628113106158e+00
5.220471143722534180e+00,2.509525717440332926e+00
5.222472667694091797e+00,2.510169447680645760e+00
5.224471092224121094e+00,2.510196269773992128e+00
5.226472854614257812e+00,2.510397137450830485e+00
5.228470802307128906e+00,2.511095703970873672e+00
5.230472326278686523e+00,2.511277498159110166e+00
5.232470035552978516e+00,2.512096466075952605e+00
5.234471797943115234e+00,2.511886657701332126e+00
5.236472368240356445e+00,2.513026298645293366e+00
5.238471508026123047e+00,2.510819138386146676e+00
5.240470647811889648e+00,2.512387336777130997e+00
5.242470979690551758e+00,2.512636484221992816e+00
5.244470357894897461e+00,2.513461412604023337e+00
5.246471405029296875e+00,2.513748707026088880e+00
5.248468160629272461e+00,2.514810861922605056e+00
5.250470638275146484e+00,2.515399755883187538e+00
