time_s,voltage_v
1.943349838256835938e-03,2.569409915138472833e+00
3.940343856811523438e-03,2.565174408575821907e+00
5.929946899414062500e-03,2.563464351113361239e+00
7.930040359497070312e-03,2.562738962499971684e+00
9.928703308105468750e-03,2.558391399191784821e+00
1.192951202392578125e-02,2.558426565936394503e+00
1.392769813537597656e-02,2.557845420580556528e+00
1.594710350036621094e-02,2.553761905880201688e+00
1.795959472656250000e-02,2.544606035304788794e+00
1.993489265441894531e-02,2.540234034089330795e+00
2.192807197570800781e-02,2.538338010113001975e+00
2.392816543579101562e-02,2.540646498280346055e+00
2.593541145324707031e-02,2.539625470593627643e+00
2.792954444885253906e-02,2.538991873144134548e+00
2.992892265319824219e-02,2.537702028477433647e+00
3.192901611328125000e-02,2.537169162889619134e+00
3.392863273620605469e-02,2.535295192634486217e+00
3.592991828918457031e-02,2.535658781010959206e+00
3.792762756347656250e-02,2.533335391680644921e+00
3.992915153503417969e-02,2.533471886333451994e+00
4.192733764648437500e-02,2.535406653333503346e+00
4.392814636230468750e-02,2.533605400753665027e+00
4.592752456665039062e-02,2.535328571239539475e+00
4.792857170104980469e-02,2.534223500993669109e+00
4.992771148681640625e-02,2.531823221662428569e+00
5.192828178405761719e-02,2.531505528867903809e+00
5.392718315124511719e-02,2.531169954677814804e+00
5.592870712280273438e-02,2.531037036304120580e+00
5.792832374572753906e-02,2.532481853065711608e+00
5.992770195007324219e-02,2.530750933975092654e+00
6.192469596862792969e-02,2.532843057256109365e+00
6.392621994018554688e-02,2.532338205854678836e+00
6.592965126037597656e-02,2.525579038331394077e+00
6.792950630187988281e-02,2.529483739076106463e+00
6.992912292480468750e-02,2.528665367205782832e+00
7.192850112915039062e-02,2.527162733931867411e+00
7.392716407775878906e-02,2.528552118367209278e+00
7.592940330505371094e-02,2.529833618382646865e+00
7.792711257934570312e-02,2.530557218856479995e+00
7.992935180664062500e-02,2.532591525625172313e+00
8.192682266235351562e-02,2.531413737704007350e+00
8.392882347106933594e-02,2.530290786062572739e+00
8.592772483825683594e-02,2.531072799095249071e+00
8.792829513549804688e-02,2.529905740011422655e+00
8.992719650268554688e-02,2.530747953742498613e+00
9.192848205566406250e-02,2.532515827717283674e+00
9.392642974853515625e-02,2.531906072128542906e+00
9.592795372009277344e-02,2.533247772842380119e+00
9.792757034301757812e-02,2.534222308900631493e+00
9.992861747741699219e-02,2.533142868655069879e+00
1.019270420074462891e-01,2.534247938900940245e+00
1.039278507232666016e-01,2.534019057037717904e+00
1.059274673461914062e-01,2.534525696578704856e+00
1.079287528991699219e-01,2.536025349620026237e+00
1.099276542663574219e-01,2.535289828215816943e+00
1.119282245635986328e-01,2.537486855684143894e+00
1.139261722564697266e-01,2.537787859176142025e+00
1.159274578094482422e-01,2.536435429624966265e+00
1.179270744323730469e-01,2.536816899397003500e+00
1.199276447296142578e-01,2.536983792422269790e+00
1.219267845153808594e-01,2.536594574045488049e+00
1.239287853240966797e-01,2.538323108950031770e+00
1.259269714355468750e-01,2.538531725231614633e+00
1.279296875000000000e-01,2.538906042445426170e+00
1.299278736114501953e-01,2.540573184558532649e+00
1.319293975830078125e-01,2.539721434083155760e+00
1.339256763458251953e-01,2.538735573141047031e+00
1.359281539916992188e-01,2.538972799655532686e+00
1.379275321960449219e-01,2.538498346626561375e+00
1.399283409118652344e-01,2.539401953149074576e+00
1.419265270233154297e-01,2.542087738762824234e+00
1.439282894134521484e-01,2.541331355730456654e+00
1.459267139434814453e-01,2.542399471092160912e+00
1.479282379150390625e-01,2.543329899708020481e+00
1.499273777008056641e-01,2.542020981552717718e+00
1.519291400909423828e-01,2.542097871553643973e+00
1.539266109466552734e-01,2.541379039451961308e+00
1.559283733367919922e-01,2.542212312485255143e+00
1.579275131225585938e-01,2.545354073685893059e+00
1.599278450012207031e-01,2.543077772030564621e+00
1.619272232055664062e-01,2.544855778796169421e+00
1.639289855957031250e-01,2.544742529957595867e+00
1.659276485443115234e-01,2.544246023207428653e+00
1.679329872131347656e-01,2.544937437169246142e+00
1.699376106262207031e-01,2.540634577349969891e+00
1.719288825988769531e-01,2.541614477826890539e+00
1.739270687103271484e-01,2.543303077614674113e+00
1.759970188140869141e-01,2.543312018312456235e+00
1.779453754425048828e-01,2.492214738394586959e+00
1.800217628479003906e-01,2.482511697114908156e+00
1.819863319396972656e-01,2.467891868101581121e+00
1.840243339538574219e-01,2.451812917210211218e+00
1.859099864959716797e-01,2.458733017293574630e+00
1.879382133483886719e-01,2.482502756417126033e+00
1.899285316467285156e-01,2.485180793426131629e+00
1.919293403625488281e-01,2.492922245612412269e+00
1.939282417297363281e-01,2.492115794672464801e+00
1.959302425384521484e-01,2.498882710800494067e+00
1.979372501373291016e-01,2.494920193543457287e+00
1.999285221099853516e-01,2.502524555030412046e+00
2.019290924072265625e-01,2.505417764832706951e+00
2.039299011230468750e-01,2.507347167414089029e+00
2.059280872344970703e-01,2.509393395113157510e+00
2.079291343688964844e-01,2.517476978001234489e+00
2.099287509918212891e-01,2.517956795448875074e+00
2.119290828704833984e-01,2.523514929236761350e+00
2.139286994934082031e-01,2.525195184373281609e+00
2.159283161163330078e-01,2.528316679992280047e+00
2.179281711578369141e-01,2.531449500495135840e+00
2.199282646179199219e-01,2.535119358911437804e+00
2.219271659851074219e-01,2.535803620315029594e+00
2.239301204681396484e-01,2.540389006184220921e+00
2.259302139282226562e-01,2.543344800870990685e+00
2.279300689697265625e-01,2.543528383198783605e+00
2.299270629882812500e-01,2.549192613267018181e+00
2.319290637969970703e-01,2.550137346999329147e+00
2.339279651641845703e-01,2.551701969111200619e+00
2.359287738800048828e-01,2.553559250063806907e+00
2.379274368286132812e-01,2.554095095884215461e+00
2.399294376373291016e-01,2.555892176138422123e+00
2.419266700744628906e-01,2.559821910836924452e+00
2.439279556274414062e-01,2.561719722952809697e+00
2.459273338317871094e-01,2.564227886703954518e+00
2.479283809661865234e-01,2.565092750202745187e+00
2.499275207519531250e-01,2.563602633905724737e+00
2.519288063049316406e-01,2.566165633936599910e+00
2.539274692535400391e-01,2.566570349522870664e+00
2.559282779693603516e-01,2.567956753725618491e+00
2.579271793365478516e-01,2.572024175169965510e+00
2.599282264709472656e-01,2.570118614449335759e+00
2.619266510009765625e-01,2.572819897272574430e+00
2.639288902282714844e-01,2.572483727035966616e+00
2.659273147583007812e-01,2.572589227269795664e+00
2.679283618927001953e-01,2.573462435419849648e+00
2.699282169342041016e-01,2.573204943323724514e+00
2.719285488128662109e-01,2.572486707268560657e+00
2.739267349243164062e-01,2.573817083098540515e+00
2.759287357330322266e-01,2.574150273102554287e+00
2.779271602630615234e-01,2.575469324048676789e+00
2.799293994903564453e-01,2.576131531731072677e+00
2.819266319274902344e-01,2.575871059402353502e+00
2.839276790618896484e-01,2.573528596583437356e+00
2.859268188476562500e-01,2.573970863100393025e+00
2.879292964935302734e-01,2.572121926799050051e+00
2.899293899536132812e-01,2.567739196746253505e+00
2.919290065765380859e-01,2.573297330534139782e+00
2.939269542694091797e-01,2.570831486085830342e+00
2.959287166595458984e-01,2.573201963091130473e+00
2.979271411895751953e-01,2.571674295863425108e+00
2.999289035797119141e-01,2.570231863287909313e+00
3.019273281097412109e-01,2.570244976311323093e+00
3.039283752441406250e-01,2.569784828398803178e+00
3.059265613555908203e-01,2.569665619095041542e+00
3.079283237457275391e-01,2.571410247255593085e+00
3.099262714385986328e-01,2.568505116522922016e+00
3.119287490844726562e-01,2.570345708173001675e+00
3.139271736145019531e-01,2.568884798155402827e+00
3.159289360046386719e-01,2.566379614636852047e+00
3.179287910461425781e-01,2.565916486491738091e+00
3.199298381805419922e-01,2.557638592438530090e+00
3.219273090362548828e-01,2.556377358004731981e+00
3.239281177520751953e-01,2.557550973600265287e+00
3.259272575378417969e-01,2.557860321743526733e+00
3.279290199279785156e-01,2.557373351737660450e+00
3.299274444580078125e-01,2.559140629665926703e+00
3.319294452667236328e-01,2.558284706864918157e+00
3.339262008666992188e-01,2.555957741255491023e+00
3.359298706054687500e-01,2.557120628013685781e+00
3.379278182983398438e-01,2.554786509846032949e+00
3.399291038513183594e-01,2.555357522411051185e+00
3.419275283813476562e-01,2.556944198244118560e+00
3.439283370971679688e-01,2.556097812187410945e+00
3.459267616271972656e-01,2.556786841963153201e+00
3.479282855987548828e-01,2.556343383353159915e+00
3.499267101287841797e-01,2.553879923090925708e+00
3.519282341003417969e-01,2.554490274726185284e+00
3.539271354675292969e-01,2.552708691681467634e+00
3.559296131134033203e-01,2.553305930293313430e+00
3.579270839691162109e-01,2.555795020555856389e+00
3.599281311035156250e-01,2.552939361684246400e+00
3.619277477264404297e-01,2.555065459616835177e+00
3.639283180236816406e-01,2.555212683106980798e+00
3.659267425537109375e-01,2.553600973320123479e+00
3.679401874542236328e-01,2.553637332157770778e+00
3.699312210083007812e-01,2.546943133705036111e+00
3.719279766082763672e-01,2.548716968145009254e+00
3.739266395568847656e-01,2.548564976282713168e+00
3.759284019470214844e-01,2.549975818392732130e+00
3.779273033142089844e-01,2.549449509316624507e+00
3.799283504486083984e-01,2.552281326327482169e+00
3.819274902343750000e-01,2.549900120484843491e+00
3.839280605316162109e-01,2.550334638397054654e+00
3.859283924102783203e-01,2.546962207193637973e+00
3.879284858703613281e-01,2.547990983485100891e+00
3.899264335632324219e-01,2.548461264188440545e+00
3.919291496276855469e-01,2.550710147703903807e+00
3.939266204833984375e-01,2.548332518140377978e+00
3.959286212921142578e-01,2.550596898865330253e+00
3.979275226593017578e-01,2.550575441190653159e+00
3.999333381652832031e-01,2.547230428127101654e+00
4.019262790679931641e-01,2.547740047900682647e+00
4.039282798767089844e-01,2.548086946974629008e+00
4.059267044067382812e-01,2.548269337209384311e+00
4.079282283782958984e-01,2.550130790487622257e+00
4.099266529083251953e-01,2.547611301852620080e+00
4.119279384613037109e-01,2.549986547230070677e+00
4.139273166656494141e-01,2.549473351177376834e+00
4.159321784973144531e-01,2.548519676747283746e+00
4.179258346557617188e-01,2.547572558828897549e+00
4.199285507202148438e-01,2.547805613017751547e+00
4.219272136688232422e-01,2.547287052546388431e+00
4.239289760589599609e-01,2.549020951869601426e+00
4.259274005889892578e-01,2.549563950248235678e+00
4.279284477233886719e-01,2.549915021647813695e+00
4.299271106719970703e-01,2.551489776550504907e+00
4.319291114807128906e-01,2.551414078642616268e+00
4.339277744293212891e-01,2.549917405833888928e+00
4.359285831451416016e-01,2.551260298640763757e+00
4.379262924194335938e-01,2.550539678399524668e+00
4.399280548095703125e-01,2.552531069818862797e+00
4.419279098510742188e-01,2.555689520322027342e+00
4.439337253570556641e-01,2.555271095665823999e+00
4.459273815155029297e-01,2.553900188672565186e+00
4.479293823242187500e-01,2.556483454285079837e+00
4.499278068542480469e-01,2.554915851940614324e+00
4.519295692443847656e-01,2.556851811033703292e+00
4.539268016815185547e-01,2.556363052888280585e+00
4.559285640716552734e-01,2.559033341292541230e+00
4.579260349273681641e-01,2.561817474581894238e+00
4.599277973175048828e-01,2.560307688749753119e+00
4.619622230529785156e-01,2.564716048802858417e+00
4.639499187469482422e-01,2.542784517143310996e+00
4.659287929534912109e-01,2.554236358909172999e+00
4.679291248321533203e-01,2.559475607809496900e+00
4.699285030364990234e-01,2.560549087589870432e+00
4.719548225402832031e-01,2.561562366671844337e+00
4.739296436309814453e-01,2.560613460613901715e+00
4.759280681610107422e-01,2.565348454159313896e+00
4.779284000396728516e-01,2.568644591408323130e+00
4.799289703369140625e-01,2.572535583083102928e+00
4.819276332855224609e-01,2.573415943791382610e+00
4.839279651641845703e-01,2.575886556611842515e+00
4.859290122985839844e-01,2.579166600604844373e+00
4.879291057586669922e-01,2.580955932254306529e+00
4.899270534515380859e-01,2.584479759273500488e+00
4.919281005859375000e-01,2.589474033054594226e+00
4.939279556274414062e-01,2.589941929571858648e+00
4.959294795989990234e-01,2.594673346838157979e+00
4.979267120361328125e-01,2.598013591529559019e+00
4.999301433563232422e-01,2.598788452004009653e+00
5.019469261169433594e-01,2.601609540177528768e+00
5.039370059967041016e-01,2.594740700094783303e+00
5.059251785278320312e-01,2.601044488077698613e+00
5.079278945922851562e-01,2.605912996043323826e+00
5.099272727966308594e-01,2.606573415586163289e+00
5.119285583496093750e-01,2.612142278211388557e+00
5.139274597167968750e-01,2.613701535904590756e+00
5.159292221069335938e-01,2.616966082688103157e+00
5.179543495178222656e-01,2.619819953420156722e+00
5.199468135833740234e-01,2.599914979924557112e+00
5.219247341156005859e-01,2.617367818041779870e+00
5.239293575286865234e-01,2.622039034609679575e+00
5.259268283843994141e-01,2.624584749291509311e+00
5.279388427734375000e-01,2.627244904904950218e+00
5.299534797668457031e-01,2.627559617466880937e+00
5.320005416870117188e-01,2.622396662520964483e+00
5.339634418487548828e-01,2.581039378766939674e+00
5.361807346343994141e-01,2.566127486959396187e+00
5.382831096649169922e-01,2.557528323832550576e+00
5.410151481628417969e-01,2.535229031470898509e+00
5.431356430053710938e-01,2.520781459901507038e+00
5.460567474365234375e-01,2.494340240280656928e+00
5.486931800842285156e-01,2.502259314329542406e+00
5.507109165191650391e-01,2.418920686116300178e+00
5.529146194458007812e-01,2.439216666128237954e+00
5.548825263977050781e-01,2.451355749530285344e+00
5.568866729736328125e-01,2.451865965350385146e+00
5.588452816009521484e-01,2.440625720098700491e+00
5.608510971069335938e-01,2.443781190369270995e+00
5.628433227539062500e-01,2.441971593138169361e+00
5.648488998413085938e-01,2.439602308225906846e+00
5.670940876007080078e-01,2.433213881637320775e+00
5.690736770629882812e-01,2.402912068714150085e+00
5.710189342498779297e-01,2.426688960395927630e+00
5.729496479034423828e-01,2.435388259337933015e+00
5.748913288116455078e-01,2.440324716606702360e+00
5.768904685974121094e-01,2.442554526633563761e+00
5.788884162902832031e-01,2.444559031076315669e+00
5.808799266815185547e-01,2.447686487160502189e+00
5.828769207000732422e-01,2.449062162525911468e+00
5.848810672760009766e-01,2.453638011650802309e+00
5.868785381317138672e-01,2.457650000768900167e+00
5.889399051666259766e-01,2.459529335442702358e+00
5.908782482147216797e-01,2.463472183164618468e+00
5.928828716278076172e-01,2.467299993908404598e+00
5.948762893676757812e-01,2.472269233735708394e+00
5.968785285949707031e-01,2.477872667059024092e+00
5.988938808441162109e-01,2.479010519863428907e+00
6.009380817413330078e-01,2.481898961293573347e+00
6.028904914855957031e-01,2.459255154044050595e+00
6.048781871795654297e-01,2.477815446593218507e+00
6.068692207336425781e-01,2.482748327582875003e+00
6.088864803314208984e-01,2.488247452765399714e+00
6.108679771423339844e-01,2.492375670954665168e+00
6.128735542297363281e-01,2.497911154974836734e+00
6.148669719696044922e-01,2.498108446372562241e+00
6.168720722198486328e-01,2.499489486156640794e+00
6.188623905181884766e-01,2.494776546332424516e+00
6.208772659301757812e-01,2.494051157719034961e+00
6.228718757629394531e-01,2.493610679341635716e+00
6.248719692230224609e-01,2.495890557276077004e+00
6.269266605377197266e-01,2.496236264256985748e+00
6.288893222808837891e-01,2.491368948384398152e+00
6.308724880218505859e-01,2.498508393586682530e+00
6.328725814819335938e-01,2.498452961260433369e+00
6.348683834075927734e-01,2.498392164515514935e+00
6.368710994720458984e-01,2.500360310120619545e+00
6.388592720031738281e-01,2.500217258956105582e+00
6.408662796020507812e-01,2.499432265690835209e+00
6.428704261779785156e-01,2.497363984270570825e+00
6.450715065002441406e-01,2.516085805426336197e+00
6.471440792083740234e-01,2.509865463956053588e+00
6.500194072723388672e-01,2.489455639059023895e+00
6.521477699279785156e-01,2.505454123670354249e+00
6.541821956634521484e-01,2.509560288138423800e+00
6.570248603820800781e-01,2.496279179606339937e+00
6.590423583984375000e-01,2.463726695028149560e+00
6.609871387481689453e-01,2.498036920790305260e+00
6.628847122192382812e-01,2.510164679308495295e+00
6.648616790771484375e-01,2.512254418403436773e+00
6.668436527252197266e-01,2.511044443970256168e+00
6.688740253448486328e-01,2.517389359162969686e+00
6.708519458770751953e-01,2.508700789058302405e+00
6.728808879852294922e-01,2.518512906850923105e+00
6.748592853546142578e-01,2.518778743598311554e+00
6.768724918365478516e-01,2.522267403872895830e+00
6.788957118988037109e-01,2.523857655985076054e+00
6.808509826660156250e-01,2.526840868811710994e+00
6.829729080200195312e-01,2.528482380924508721e+00
6.848990917205810547e-01,2.526188197873616037e+00
6.868247985839843750e-01,2.567829795817112348e+00
6.888248920440673828e-01,2.587018321397104526e+00
6.908228397369384766e-01,2.600870442494206625e+00
6.928246021270751953e-01,2.611608816577055237e+00
6.948232650756835938e-01,2.623508885325060547e+00
6.968302726745605469e-01,2.636099771988364537e+00
6.988229751586914062e-01,2.641585188100956660e+00
7.008235454559326172e-01,2.650974708911741917e+00
7.028219699859619141e-01,2.659378964826937253e+00
7.048239707946777344e-01,2.664417346050422797e+00
7.068214416503906250e-01,2.671259364039821893e+00
7.088227272033691406e-01,2.680852136713521183e+00
7.108216285705566406e-01,2.686418615152670775e+00
7.128219604492187500e-01,2.694042050128227395e+00
7.148213386535644531e-01,2.697707140172378892e+00
7.168214321136474609e-01,2.700809562302775468e+00
7.188203334808349609e-01,2.705089176307818644e+00
7.208237648010253906e-01,2.708834732632009246e+00
7.228217124938964844e-01,2.710704530561510506e+00
7.248256206512451172e-01,2.716634597377133087e+00
7.268238067626953125e-01,2.715635027365091769e+00
7.288239002227783203e-01,2.719537939970247731e+00
7.308225631713867188e-01,2.719918813695766158e+00
7.328231334686279297e-01,2.719369258805425016e+00
7.348220348358154297e-01,2.720099415790965036e+00
7.368228435516357422e-01,2.720398631143406742e+00
7.388224601745605469e-01,2.718617048098689093e+00
7.408230304718017578e-01,2.720127429977349021e+00
7.428219318389892578e-01,2.717178787848804955e+00
7.448217868804931641e-01,2.718027558091587803e+00
7.468209266662597656e-01,2.717402901339876831e+00
7.488219738006591797e-01,2.714169348975342455e+00
7.508211135864257812e-01,2.711665357549829292e+00
7.528214454650878906e-01,2.709227527287903836e+00
7.548210620880126953e-01,2.704704726303187368e+00
7.568221092224121094e-01,2.703003609538508378e+00
7.588205337524414062e-01,2.699435079030403806e+00
7.608208656311035156e-01,2.697415673424681692e+00
7.628219127655029297e-01,2.695333086887965912e+00
7.648210525512695312e-01,2.691725217309620000e+00
7.668228149414062500e-01,2.686145625847056628e+00
7.688224315643310547e-01,2.677727064815409896e+00
7.708199024200439453e-01,2.673872431978277397e+00
7.728197574615478516e-01,2.671012004734516498e+00
7.748193740844726562e-01,2.668339332144180620e+00
7.768201828002929688e-01,2.663330753246635485e+00
7.788188457489013672e-01,2.657998521089377508e+00
7.808198928833007812e-01,2.655075508961142194e+00
7.828192710876464844e-01,2.649447637730555360e+00
7.848205566406250000e-01,2.646169977923629180e+00
7.868182659149169922e-01,2.639963941569797967e+00
7.888190746307373047e-01,2.636396007108212203e+00
7.908177375793457031e-01,2.632931784740899062e+00
7.928173542022705078e-01,2.627137020485045937e+00
7.948172092437744141e-01,2.624488785801981194e+00
7.968180179595947266e-01,2.622335865776046049e+00
7.988176345825195312e-01,2.616006447792821987e+00
8.008179664611816406e-01,2.611072970756646683e+00
8.028171062469482422e-01,2.607354832572320813e+00
8.048174381256103516e-01,2.602512550653523160e+00
8.068163394927978516e-01,2.599134158984918397e+00
8.088173866271972656e-01,2.597365092917095719e+00
8.108160495758056641e-01,2.593633841709356513e+00
8.128163814544677734e-01,2.591217469122108152e+00
8.148150444030761719e-01,2.587116073026189067e+00
8.168160915374755859e-01,2.582083056221372797e+00
8.188149929046630859e-01,2.579828808287240260e+00
8.208160400390625000e-01,2.574692675434669731e+00
8.228156566619873047e-01,2.571908542145316723e+00
8.248155117034912109e-01,2.570717641200737980e+00
8.268151283264160156e-01,2.566103645098643860e+00
8.288156986236572266e-01,2.564029999259710202e+00
8.308141231536865234e-01,2.562430210403229047e+00
8.328149318695068359e-01,2.558164305468118904e+00
8.348147869110107422e-01,2.552977508661450123e+00
8.368141651153564453e-01,2.550985521195593186e+00
8.388135433197021484e-01,2.548457687909327696e+00
8.408141136169433594e-01,2.548222845580917273e+00
8.428134918212890625e-01,2.544538086001644661e+00
8.448140621185302734e-01,2.543835347155969817e+00
8.468141555786132812e-01,2.542556231326607463e+00
8.488135337829589844e-01,2.539707725013223172e+00
8.508126735687255859e-01,2.538318340577881305e+00
8.528127670288085938e-01,2.536617223813202759e+00
8.548123836517333984e-01,2.533436123542323504e+00
8.568127155303955078e-01,2.532842461209590557e+00
8.588118553161621094e-01,2.532080117712034895e+00
8.608124256134033203e-01,2.530939284675036038e+00
8.628118038177490234e-01,2.532524768415065797e+00
8.648126125335693359e-01,2.530635896996962675e+00
8.668127059936523438e-01,2.526215616013481213e+00
8.688125610351562500e-01,2.526427212527658117e+00
8.708117008209228516e-01,2.524662914831985905e+00
8.728120326995849609e-01,2.523685994587659298e+00
8.748116493225097656e-01,2.525249424606493154e+00
8.768110275268554688e-01,2.524235549478000440e+00
8.788108825683593750e-01,2.524837556461996702e+00
8.808112144470214844e-01,2.523343267839344595e+00
8.828101158142089844e-01,2.523047032719496929e+00
8.848104476928710938e-01,2.522822919228425054e+00
8.868098258972167969e-01,2.521629634097771078e+00
8.888111114501953125e-01,2.521984877822980753e+00
8.908095359802246094e-01,2.523124518766941993e+00
8.928096294403076172e-01,2.522361579222867523e+00
8.948090076446533203e-01,2.522940936439149073e+00
8.968095779418945312e-01,2.524311247385889079e+00
8.988084793090820312e-01,2.523672881564245518e+00
9.008097648620605469e-01,2.522592845272165096e+00
9.028089046478271484e-01,2.523115578069159870e+00
9.048094749450683594e-01,2.521893682705603101e+00
9.068078994750976562e-01,2.522478404340553926e+00
9.088091850280761719e-01,2.523774805518961717e+00
9.108080863952636719e-01,2.524681392274068958e+00
9.128084182739257812e-01,2.526457014853598526e+00
9.148075580596923828e-01,2.525888386474655523e+00
9.168078899383544922e-01,2.525223794606184402e+00
9.188070297241210938e-01,2.525212469722327047e+00
9.208071231842041016e-01,2.524825039485101730e+00
9.228072166442871094e-01,2.526011172057530008e+00
9.248068332672119141e-01,2.528721395578550801e+00
9.268074035644531250e-01,2.527615133239642820e+00
9.288070201873779297e-01,2.529402080703029743e+00
9.308063983917236328e-01,2.530530396763133627e+00
9.328072071075439453e-01,2.528925839534502007e+00
9.348063468933105469e-01,2.529402080703029743e+00
9.368071556091308594e-01,2.529961172337671815e+00
9.388058185577392578e-01,2.530723515835227477e+00
9.408054351806640625e-01,2.532648150044459090e+00
9.428055286407470703e-01,2.531894151198166742e+00
9.448056221008300781e-01,2.533210221911695204e+00
9.468052387237548828e-01,2.535174195191168156e+00
9.488055706024169922e-01,2.534490529834095174e+00
9.508049488067626953e-01,2.535803620315029594e+00
9.528114795684814453e-01,2.535721961941952873e+00
9.548716545104980469e-01,2.530821267464312019e+00
9.568347930908203125e-01,2.487536965314980364e+00
9.588253498077392578e-01,2.516210975195285915e+00
9.608170986175537109e-01,2.513384522603097082e+00
9.628019332885742188e-01,2.512674631199196540e+00
9.648065567016601562e-01,2.514117659821231143e+00
9.668037891387939453e-01,2.513807715631450890e+00
9.688246250152587891e-01,2.516407670546492614e+00
9.708068370819091797e-01,2.505271733435598946e+00
9.728078842163085938e-01,2.509389818834044661e+00
9.748041629791259766e-01,2.503932416907836966e+00
9.768011569976806641e-01,2.502451837355117448e+00
9.787998199462890625e-01,2.503117621316626185e+00
9.808049201965332031e-01,2.498346268933566705e+00
9.828026294708251953e-01,2.483474312242783366e+00
9.848029613494873047e-01,2.481769619198991972e+00
9.868028163909912109e-01,2.478373942181341771e+00
9.888286590576171875e-01,2.472490963040705036e+00
9.908154010772705078e-01,2.451618606045079751e+00
9.928057193756103516e-01,2.451415354182166162e+00
9.948012828826904297e-01,2.463119919672002833e+00
9.968020915985107422e-01,2.465490992723821773e+00
9.988014698028564453e-01,2.424882343397420037e+00
1.000802278518676758e+00,2.392674373707100788e+00
1.002800464630126953e+00,2.432370475813207200e+00
1.004801034927368164e+00,2.436760358424229445e+00
1.006800413131713867e+00,2.441016130568519849e+00
1.008800745010375977e+00,2.445502572715589018e+00
1.010800361633300781e+00,2.450913483013329675e+00
1.012803077697753906e+00,2.456263000519633533e+00
1.014800786972045898e+00,2.454353863519890933e+00
1.016868352890014648e+00,2.457204754019350457e+00
1.018918752670288086e+00,2.415380765841098398e+00
1.020885705947875977e+00,2.380882189378999314e+00
1.022811889648437500e+00,2.407676268538983866e+00
1.024802446365356445e+00,2.436076693067156462e+00
1.026796817779541016e+00,2.435806087947617549e+00
1.028803825378417969e+00,2.429494551359957732e+00
1.030799865722656250e+00,2.363281531725112572e+00
1.032799482345581055e+00,2.376508400023984890e+00
1.034799337387084961e+00,2.413759519309940149e+00
1.037613153457641602e+00,2.409670640190916036e+00
1.041336297988891602e+00,2.369513198079252092e+00
1.045336961746215820e+00,2.431475809988476122e+00
1.049340009689331055e+00,2.463596756887049377e+00
1.053333282470703125e+00,2.491990028856996275e+00
1.057334423065185547e+00,2.518970074530848979e+00
1.061333894729614258e+00,2.528825107672823425e+00
1.065334320068359375e+00,2.524306479013738613e+00
1.069333314895629883e+00,2.549165195127153005e+00
1.073349952697753906e+00,2.570352264684708565e+00
1.077332973480224609e+00,2.592497777044508123e+00
1.081334829330444336e+00,2.611694051229244806e+00
1.085331678390502930e+00,2.542486493883906906e+00
1.089330673217773438e+00,2.606016112091077641e+00
1.093332529067993164e+00,2.623266890438424426e+00
1.097328901290893555e+00,2.638187722943749591e+00
1.101331472396850586e+00,2.647947984689233980e+00
1.105329513549804688e+00,2.560823865035041003e+00
1.109336376190185547e+00,2.633670286377702396e+00
1.113330602645874023e+00,2.640499191343687713e+00
1.117325067520141602e+00,2.651047426587036515e+00
1.121330499649047852e+00,2.656201440835170846e+00
1.125327110290527344e+00,2.631931618682338936e+00
1.129328489303588867e+00,2.623241260438115674e+00
1.133327007293701172e+00,2.632520512642921418e+00
1.137513160705566406e+00,2.633301333582560133e+00
1.141682147979736328e+00,2.640142755525440421e+00
1.145687580108642578e+00,2.638798074579009167e+00
1.149686574935913086e+00,2.609739614694072785e+00
1.153680324554443359e+00,2.654757816166617435e+00
1.157680988311767578e+00,2.621500804603195789e+00
1.161681652069091797e+00,2.626571372338696975e+00
1.165683984756469727e+00,2.626790121411099577e+00
1.169690370559692383e+00,2.547713225807336279e+00
1.173751115798950195e+00,2.580085108290327778e+00
1.177735328674316406e+00,2.610943032615546500e+00
1.181782960891723633e+00,2.578186104081404917e+00
1.185712099075317383e+00,2.579840133171097616e+00
1.189690828323364258e+00,2.470170553942984792e+00
1.193688869476318359e+00,2.554220861699683987e+00
1.197690725326538086e+00,2.563625283673439448e+00
1.201683282852172852e+00,2.568899103271854223e+00
1.205681324005126953e+00,2.571382233069209100e+00
1.209694862365722656e+00,2.578667709668601926e+00
1.213683843612670898e+00,2.501894533860031800e+00
1.217681884765625000e+00,2.536863391025470538e+00
1.221686601638793945e+00,2.545646136480109067e+00
1.225687980651855469e+00,2.550385302351153349e+00
1.229679584503173828e+00,2.556005424976995677e+00
1.233677148818969727e+00,2.560569949218028718e+00
1.237699508666992188e+00,2.551924294462716070e+00
1.242080688476562500e+00,2.558766908498633974e+00
1.247089385986328125e+00,2.565836020211698987e+00
1.252075433731079102e+00,2.566769429060152596e+00
1.257075786590576172e+00,2.572436043314461962e+00
1.262079715728759766e+00,2.570145436542682127e+00
1.267082452774047852e+00,2.544668620189263653e+00
1.272074460983276367e+00,2.552415436794214010e+00
1.277073860168457031e+00,2.520142498033344669e+00
1.282075166702270508e+00,2.507157028574589219e+00
1.287082433700561523e+00,2.530366483970461378e+00
1.292073488235473633e+00,2.543108170403023838e+00
1.297073602676391602e+00,2.556981749174803475e+00
1.302074193954467773e+00,2.506230176237842500e+00
1.307079076766967773e+00,2.538456623370244802e+00
1.312074899673461914e+00,2.555855817300774824e+00
1.317079782485961914e+00,2.571229049113875398e+00
1.322074413299560547e+00,2.587202499771416253e+00
1.327085256576538086e+00,2.604040217881228525e+00
1.332070827484130859e+00,2.655889708505834168e+00
1.337069988250732422e+00,2.599450063639886732e+00
1.341744661331176758e+00,2.575963446612768770e+00
1.345679283142089844e+00,2.597305488265214901e+00
1.349671602249145508e+00,2.614374472424325191e+00
1.353667974472045898e+00,2.630550578898260383e+00
1.357668399810791016e+00,2.570764132829205018e+00
1.361667871475219727e+00,2.619716837372402907e+00
1.365666866302490234e+00,2.637314514793695608e+00
1.369658946990966797e+00,2.651194054030663327e+00
1.373647928237915039e+00,2.662418206026340162e+00
1.377650022506713867e+00,2.673433145693915769e+00
1.381648063659667969e+00,2.684919558157868202e+00
1.385649442672729492e+00,2.690964065905101954e+00
1.389647006988525391e+00,2.696034633640603140e+00
1.393646001815795898e+00,2.701078379282757957e+00
1.397644519805908203e+00,2.614349438470535247e+00
1.401646852493286133e+00,2.669447978669163835e+00
1.405645847320556641e+00,2.673077901968706094e+00
1.409647941589355469e+00,2.678544840639214719e+00
1.413646936416625977e+00,2.682500801384544609e+00
1.417644739151000977e+00,2.672949751967162335e+00
1.421648740768432617e+00,2.640204744363396472e+00
1.425647258758544922e+00,2.584891031371478132e+00
1.429670095443725586e+00,2.601784181807539564e+00
1.433669090270996094e+00,2.607422185828946137e+00
1.437646389007568359e+00,2.652167397995877085e+00
1.441930294036865234e+00,2.655423004081607363e+00
1.446100711822509766e+00,2.623650744396536894e+00
1.451089620590209961e+00,2.619335367600365672e+00
1.456061124801635742e+00,2.616246058493382876e+00
1.461062908172607422e+00,2.612058235652236604e+00
1.466061115264892578e+00,2.569312163509388292e+00
1.471081495285034180e+00,2.562153048771983244e+00
1.476063489913940430e+00,2.566266961844797301e+00
1.481064319610595703e+00,2.567082353482526891e+00
1.486056804656982422e+00,2.567776747676938420e+00
1.491082429885864258e+00,2.559537596647452951e+00
1.496058940887451172e+00,2.564602799964284863e+00
1.501056194305419922e+00,2.564364381356761591e+00
1.506057739257812500e+00,2.566991754411668047e+00
1.511083602905273438e+00,2.562107153190035014e+00
1.516055822372436523e+00,2.565701313698448338e+00
1.521058320999145508e+00,2.563855953676218213e+00
1.526054143905639648e+00,2.567228980926153703e+00
1.531081914901733398e+00,2.562492795287703906e+00
1.536055088043212891e+00,2.561627335742394429e+00
1.540946960449218750e+00,2.558955259198577359e+00
1.544698238372802734e+00,2.566916056503779409e+00
1.548688650131225586e+00,2.564060397632169419e+00
1.552647113800048828e+00,2.552735513774814002e+00
1.556632041931152344e+00,2.554812735892860509e+00
1.560633420944213867e+00,2.554968900080788252e+00
1.564631938934326172e+00,2.557777471277412396e+00
1.568639516830444336e+00,2.557478851971489497e+00
1.572631359100341797e+00,2.547138040916686386e+00
1.576631546020507812e+00,2.550757235378889654e+00
1.580632448196411133e+00,2.553857869369729805e+00
1.584630966186523438e+00,2.553342289130960729e+00
1.588631629943847656e+00,2.554014033557657548e+00
1.592628955841064453e+00,2.577908942450158669e+00
1.596627950668334961e+00,2.549778526995006622e+00
1.600628614425659180e+00,2.548485106049192872e+00
1.604627609252929688e+00,2.550751274913701572e+00
1.608628511428833008e+00,2.553401297736322739e+00
1.612628459930419922e+00,2.576490351735395201e+00
1.616627693176269531e+00,2.548846906286109437e+00
1.620626688003540039e+00,2.549714153970975339e+00
1.624627351760864258e+00,2.551034993056654265e+00
1.628626108169555664e+00,2.553856677276692189e+00
1.632626533508300781e+00,2.553582495878040426e+00
1.636623620986938477e+00,2.555091685663662737e+00
1.640683174133300781e+00,2.554039663557966300e+00
1.645045280456542969e+00,2.558046288257394885e+00
1.650046110153198242e+00,2.555591172646423992e+00
1.655089616775512695e+00,2.554810947753304085e+00
1.660044670104980469e+00,2.555910653580505176e+00
1.665042877197265625e+00,2.556383318469920063e+00
1.670041561126708984e+00,2.554750747054904458e+00
1.675070524215698242e+00,2.553878134951369283e+00
1.680042028427124023e+00,2.554472989377139847e+00
1.685043811798095703e+00,2.551926678648791302e+00
1.690041542053222656e+00,2.548862999542117258e+00
1.695068597793579102e+00,2.548506563723869967e+00
1.700040578842163086e+00,2.547791307901300151e+00
1.705040216445922852e+00,2.543337052266246179e+00
1.710077524185180664e+00,2.573843905191886883e+00
1.715155124664306641e+00,2.521221938278906283e+00
1.720173835754394531e+00,2.507832945326917695e+00
1.725209474563598633e+00,2.538739149420159880e+00
1.730303525924682617e+00,2.484093604575825065e+00
1.735132217407226562e+00,2.479722199406885874e+00
1.740079879760742188e+00,2.492697536074821585e+00
1.744677543640136719e+00,2.494688927494159714e+00
1.748647928237915039e+00,2.502751052707559154e+00
1.752651214599609375e+00,2.505450547391241400e+00
1.756648540496826172e+00,2.508924902549374281e+00
1.760649919509887695e+00,2.514002622843101165e+00
1.764649629592895508e+00,2.519358696861111913e+00
1.768647193908691406e+00,2.523493471562084256e+00
1.772656202316284180e+00,2.520654501993000896e+00
1.776647090911865234e+00,2.529155913490761964e+00
1.780646800994873047e+00,2.534901801932072818e+00
1.784644365310668945e+00,2.575415083815465245e+00
1.788646936416625977e+00,2.577179977557656265e+00
1.792643547058105469e+00,2.543326919475426440e+00
1.796643733978271484e+00,2.546803658819634553e+00
1.800643205642700195e+00,2.547573154875416357e+00
1.804644107818603516e+00,2.549834555367774591e+00
1.808642864227294922e+00,2.553859061462767421e+00
1.812643051147460938e+00,2.556403584051559541e+00
1.816642522811889648e+00,2.556640214519526388e+00
1.820646286010742188e+00,2.558288879190549814e+00
1.824648380279541016e+00,2.551698988878606578e+00
1.828638315200805664e+00,2.551929658881385343e+00
1.832640409469604492e+00,2.554599351239127181e+00
1.836639881134033203e+00,2.548604315352954508e+00
1.840641021728515625e+00,2.551815813996292981e+00
1.844989776611328125e+00,2.555207318688311524e+00
1.849194049835205078e+00,2.564223118331804052e+00
1.854066133499145508e+00,2.557797736859051874e+00
1.859104394912719727e+00,2.557429380110428419e+00
1.864061355590820312e+00,2.557128376618430288e+00
1.869067430496215820e+00,2.548621600701999945e+00
1.874063968658447266e+00,2.541436855964285702e+00
1.879088163375854492e+00,2.547095721613851005e+00
1.884060144424438477e+00,2.548094099532854706e+00
1.889062166213989258e+00,2.549386924432149648e+00
1.894060134887695312e+00,2.551958865160806944e+00
1.899086236953735352e+00,2.554443187051199438e+00
1.904057741165161133e+00,2.554678625426128669e+00
1.909062862396240234e+00,2.553446597271752161e+00
1.914059877395629883e+00,2.557149238246588574e+00
1.919085025787353516e+00,2.555085129151955847e+00
1.924058198928833008e+00,2.554173774024698140e+00
1.929058551788330078e+00,2.557053274757060457e+00
1.934058666229248047e+00,2.555225200083875770e+00
1.939222574234008789e+00,2.554495639144854557e+00
1.943853855133056641e+00,2.556088871489628822e+00
1.947638750076293945e+00,2.565694161140222640e+00
1.951631307601928711e+00,2.560772008987904691e+00
1.955632209777832031e+00,2.560708232010392216e+00
1.959632396697998047e+00,2.562030859235627567e+00
1.963630676269531250e+00,2.562789030407551571e+00
1.967631578445434570e+00,2.560721941080324804e+00
1.971635818481445312e+00,2.559312291063343459e+00
1.975630521774291992e+00,2.561607666207273759e+00
1.979629516601562500e+00,2.561615414812018265e+00
1.983628511428833008e+00,2.557049102431428800e+00
1.987630844116210938e+00,2.558064169652959130e+00
1.991626977920532227e+00,2.558985061524517768e+00
1.995628118515014648e+00,2.558537430588892825e+00
1.999628305435180664e+00,2.558351464075024673e+00
2.003627061843872070e+00,2.555740780322644845e+00
2.007627010345458984e+00,2.555417723109450812e+00
2.011627674102783203e+00,2.556558556146449668e+00
2.015626668930053711e+00,2.556964463825758038e+00
2.019668817520141602e+00,2.545882170901557107e+00
2.023632049560546875e+00,2.549186652801830100e+00
2.027626276016235352e+00,2.550663656075436769e+00
2.031626224517822266e+00,2.547425335338751928e+00
2.035627365112304688e+00,2.548444574885913916e+00
2.039627552032470703e+00,2.531186047933822625e+00
2.043793439865112305e+00,2.532375160738844944e+00
2.048047542572021484e+00,2.540725772467347543e+00
2.053079366683959961e+00,2.535866205199504453e+00
2.058061838150024414e+00,2.533299032842997622e+00
2.063053846359252930e+00,2.536335889856325299e+00
2.068045854568481445e+00,2.537119691028558055e+00
2.073048114776611328e+00,2.577347466629441364e+00
2.078050136566162109e+00,2.539155785936806797e+00
2.083048105239868164e+00,2.543398445057683421e+00
2.088042497634887695e+00,2.542981808541036504e+00
2.093043088912963867e+00,2.545330827871659540e+00
2.098059654235839844e+00,2.548120325579682266e+00
2.103046178817749023e+00,2.547200029754642436e+00
2.108042716979980469e+00,2.547990983485100891e+00
2.113184928894042969e+00,2.575132557765550168e+00
2.118208646774291992e+00,2.513387502835691123e+00
2.123215675354003906e+00,2.499113380803272833e+00
2.128308534622192383e+00,2.493678628644779849e+00
2.133162736892700195e+00,2.493706642831163833e+00
2.138141155242919922e+00,2.489277421149900249e+00
2.143245220184326172e+00,2.490761576981732617e+00
2.147643089294433594e+00,2.490309773720476016e+00
2.151642799377441406e+00,2.494662701447332154e+00
2.155672550201416016e+00,2.535637919382800920e+00
2.159647226333618164e+00,2.501406967807646708e+00
2.163645505905151367e+00,2.507323325553336701e+00
2.167673826217651367e+00,2.512114347471516851e+00
2.171684026718139648e+00,2.514599265408428153e+00
2.175705432891845703e+00,2.522337141315596387e+00
2.179772138595581055e+00,2.531344596307825601e+00
2.183737277984619141e+00,2.535440627985075412e+00
2.187706708908081055e+00,2.535866205199504453e+00
2.192457914352416992e+00,2.549045985823391369e+00
2.196974277496337891e+00,2.543259566218801115e+00
2.201617479324340820e+00,2.546509807885862120e+00
2.205625057220458984e+00,2.556700415217926015e+00
2.209730863571166992e+00,2.558704323614159115e+00
2.213618993759155273e+00,2.590629171208044479e+00
2.217612504959106445e+00,2.603864384158180112e+00
2.221611738204956055e+00,2.617914392699526971e+00
2.225628852844238281e+00,2.630288914476503592e+00
2.229610443115234375e+00,2.639515714587654216e+00
2.233610630035400391e+00,2.650563436813764273e+00
2.237608671188354492e+00,2.659051735288111562e+00
2.241759061813354492e+00,2.667029817942359049e+00
2.245306015014648438e+00,2.672390660332520262e+00
2.248736619949340820e+00,2.671652158695716484e+00
2.251730442047119141e+00,2.676739415733744742e+00
2.254730463027954102e+00,2.678440532498423288e+00
2.257730722427368164e+00,2.678364238544015841e+00
2.260730504989624023e+00,2.677994093655835961e+00
2.263732433319091797e+00,2.680090985309003138e+00
2.266728401184082031e+00,2.676539144103425194e+00
2.269729375839233398e+00,2.674984058735854653e+00
2.272734403610229492e+00,2.671599110555542556e+00
2.275725603103637695e+00,2.670525034728650215e+00
2.278728961944580078e+00,2.680268011125089167e+00
2.281729221343994141e+00,2.679416856696231086e+00
2.284727811813354492e+00,2.678159794588064635e+00
2.287727117538452148e+00,2.677430829695562231e+00
2.290727615356445312e+00,2.674585899661290789e+00
2.293727397918701172e+00,2.673447450810367165e+00
2.296728372573852539e+00,2.672500332891980968e+00
2.299726247787475586e+00,2.668189724467959767e+00
2.302725791931152344e+00,2.663536985342143115e+00
2.305726289749145508e+00,2.658900339472334284e+00
2.308727741241455078e+00,2.657732088295470252e+00
2.311724424362182617e+00,2.652293759857864419e+00
2.314728736877441406e+00,2.647567707010234361e+00
2.317728042602539062e+00,2.641024308326758163e+00
2.320725440979003906e+00,2.633599952888483031e+00
2.323726892471313477e+00,2.630181626103118120e+00
2.326724052429199219e+00,2.625819161631961052e+00
2.329723834991455078e+00,2.621277287158642721e+00
2.332725524902343750e+00,2.617340995948433502e+00
2.335723876953125000e+00,2.610483480749545393e+00
2.338724136352539062e+00,2.604266119511856825e+00
2.341805696487426758e+00,2.601441455059224861e+00
2.345142841339111328e+00,2.595437478475270066e+00
2.350045680999755859e+00,2.581869075521120660e+00
2.354991912841796875e+00,2.612752033800129325e+00
2.359986066818237305e+00,2.568477102336538032e+00
2.364988327026367188e+00,2.562865324361959019e+00
2.370018720626831055e+00,2.555091685663662737e+00
2.374986886978149414e+00,2.547197049522048395e+00
2.379986763000488281e+00,2.544480269489320268e+00
2.384984970092773438e+00,2.577240178256055891e+00
2.390033483505249023e+00,2.532968227025059083e+00
2.395000934600830078e+00,2.528809610463334412e+00
2.399975299835205078e+00,2.510389984892604787e+00
2.404986619949340820e+00,2.508446873241290120e+00
2.410007476806640625e+00,2.505114377154633587e+00
2.414984941482543945e+00,2.506262362749858141e+00
2.419980764389038086e+00,2.505606711579169144e+00
2.424985408782958984e+00,2.505583465764935625e+00
2.430017709732055664e+00,2.507169545551484191e+00
2.434990644454956055e+00,2.506569922753563162e+00
2.439979314804077148e+00,2.505679429254463741e+00
2.445056438446044922e+00,2.507170737644521807e+00
2.449637413024902344e+00,2.508445681148252504e+00
2.453560113906860352e+00,2.514986695645653469e+00
2.457559108734130859e+00,2.516129912868728002e+00
2.461559295654296875e+00,2.521344723861780768e+00
2.465559959411621094e+00,2.524603310180105087e+00
2.469558477401733398e+00,2.525964084382544161e+00
2.473558664321899414e+00,2.528543177669427156e+00
2.477558851242065430e+00,2.530792657231409226e+00
2.481556415557861328e+00,2.573831984261510719e+00
2.485558032989501953e+00,2.575878808007098009e+00
2.489557504653930664e+00,2.577873775705548987e+00
2.493556737899780273e+00,2.542427485278544896e+00
2.497555494308471680e+00,2.546839421610763043e+00
2.501554250717163086e+00,2.547565406270671851e+00
2.505557298660278320e+00,2.548781341169040537e+00
2.509553909301757812e+00,2.553407854248029629e+00
2.513554573059082031e+00,2.556529349867028067e+00
2.517553806304931641e+00,2.555860585672925289e+00
2.521551847457885742e+00,2.557632631973342008e+00
2.525553703308105469e+00,2.561012215734984387e+00
2.529551029205322266e+00,2.560631342009465961e+00
2.533550977706909180e+00,2.561090893875467067e+00
2.537551164627075195e+00,2.561879463419850289e+00
2.541550159454345703e+00,2.563699193441771662e+00
2.545610189437866211e+00,2.563745685070238700e+00
2.549735307693481445e+00,2.562408752728551953e+00
2.554005146026611328e+00,2.565883107886684833e+00
2.558973789215087891e+00,2.562163181562802983e+00
2.563970327377319336e+00,2.558688826404670102e+00
2.568969964981079102e+00,2.556355304283536078e+00
2.574002027511596680e+00,2.549127048149949282e+00
2.578970432281494141e+00,2.552605575633713819e+00
2.583975076675415039e+00,2.563151426690986945e+00
2.588976860046386719e+00,2.527670565565891980e+00
2.593996763229370117e+00,2.526972595092367602e+00
2.598971366882324219e+00,2.533180419585754795e+00
2.603977203369140625e+00,2.531488243518858372e+00
2.609016895294189453e+00,2.530871931418410714e+00
2.614003896713256836e+00,2.517863216145422189e+00
2.618974447250366211e+00,2.517989578007409524e+00
2.623967170715332031e+00,2.516116203798795414e+00
2.628961086273193359e+00,2.522319855966550950e+00
2.633986473083496094e+00,2.522461715038027297e+00
2.638968229293823242e+00,2.522384825037101042e+00
2.643964052200317383e+00,2.525620165541191842e+00
2.648659467697143555e+00,2.527507844866257347e+00
2.652547597885131836e+00,2.509765924187412622e+00
2.656544685363769531e+00,2.514663042385940628e+00
2.660542249679565430e+00,2.520125212684299232e+00
2.664542913436889648e+00,2.522479596433591542e+00
2.668541193008422852e+00,2.526393833922604859e+00
2.672540903091430664e+00,2.528685036740903502e+00
2.676543712615966797e+00,2.572908708203876849e+00
2.680539369583129883e+00,2.577832648495751222e+00
2.684541225433349609e+00,2.577422568490811194e+00
2.688539266586303711e+00,2.540402715254153510e+00
2.692540168762207031e+00,2.539655272919568052e+00
2.696543216705322266e+00,2.543546264594347850e+00
2.700538635253906250e+00,2.540914123167290928e+00
2.704539537429809570e+00,2.541908924807181780e+00
2.708540201187133789e+00,2.545873230203774984e+00
2.712536573410034180e+00,2.546940153472442070e+00
2.716539621353149414e+00,2.544415896465288984e+00
2.720536708831787109e+00,2.548103636277155637e+00
2.724545240402221680e+00,2.548452323490658422e+00
2.728541851043701172e+00,2.550787037704830063e+00
2.732538938522338867e+00,2.551459974224564498e+00
2.736535549163818359e+00,2.549756473273810720e+00
2.740537405014038086e+00,2.549218243267326933e+00
2.744655370712280273e+00,2.549891179787061368e+00
2.748692512512207031e+00,2.549789255832345169e+00
2.752956867218017578e+00,2.551246589570831169e+00
2.757957935333251953e+00,2.545564478107032347e+00
2.762959241867065430e+00,2.544871872052177242e+00
2.767956018447875977e+00,2.541960780854318092e+00
2.772963285446166992e+00,2.576426574757882726e+00
2.777983427047729492e+00,2.536349598926257887e+00
2.782959461212158203e+00,2.535540167753716378e+00
2.787955760955810547e+00,2.532871071442493349e+00
2.792951583862304688e+00,2.533936802618122375e+00
2.797953128814697266e+00,2.532299462830956305e+00
2.802955150604248047e+00,2.531243864446147018e+00
2.807954788208007812e+00,2.529701892101990257e+00
2.812951326370239258e+00,2.530184689782224883e+00
2.817952156066894531e+00,2.527990046499973165e+00
2.822953462600708008e+00,2.527932826034167579e+00
2.827951192855834961e+00,2.527990046499973165e+00
2.832949638366699219e+00,2.530559006996036420e+00
2.837949514389038086e+00,2.528428140691297177e+00
2.842956781387329102e+00,2.529942694895588762e+00
2.848098039627075195e+00,2.516587080548653876e+00
2.852555036544799805e+00,2.507201136016981025e+00
2.856533050537109375e+00,2.513264717252816638e+00
2.860525846481323242e+00,2.517090739857046788e+00
2.864526271820068359e+00,2.521363201303863821e+00
2.868529558181762695e+00,2.521688642703133088e+00
2.872528314590454102e+00,2.523517313422836583e+00
2.876525640487670898e+00,2.526546421831419753e+00
2.880524873733520508e+00,2.531581226775792448e+00
2.884526014328002930e+00,2.530594173740646102e+00
2.888523340225219727e+00,2.530253831178406632e+00
2.892524957656860352e+00,2.573433229140428047e+00
2.896523237228393555e+00,2.575908610333038418e+00
2.900522708892822266e+00,2.575549790328715893e+00
2.904523134231567383e+00,2.577869007333398521e+00
2.908522844314575195e+00,2.540799086189160949e+00
2.912521362304687500e+00,2.541610305501258882e+00
2.916522979736328125e+00,2.541337912242163544e+00
2.920520544052124023e+00,2.542007868529303938e+00
2.924521684646606445e+00,2.543441360407037610e+00
2.928522825241088867e+00,2.544306223905828279e+00
2.932519674301147461e+00,2.545736735550967911e+00
2.936520576477050781e+00,2.543954556459731453e+00
2.940519571304321289e+00,2.543499176919362004e+00
2.944520950317382812e+00,2.544664447863631995e+00
2.948671579360961914e+00,2.544732397166776128e+00
2.952950000762939453e+00,2.545221155312198835e+00
2.957940578460693359e+00,2.539241616635515175e+00
2.962967634201049805e+00,2.540948097818862994e+00
2.967947721481323242e+00,2.577267000349402259e+00
2.972944259643554688e+00,2.529431883028970152e+00
2.977942705154418945e+00,2.528246346503060682e+00
2.982965946197509766e+00,2.528189722083773905e+00
2.987941980361938477e+00,2.529194060467965688e+00
2.992935657501220703e+00,2.533462945635669872e+00
2.997938871383666992e+00,2.536103431713990108e+00
3.002957105636596680e+00,2.538175885459886150e+00
3.007936716079711914e+00,2.577299186861417901e+00
3.012937784194946289e+00,2.545408909965623412e+00
3.017963647842407227e+00,2.549360102338803280e+00
3.022946119308471680e+00,2.548927372566148541e+00
3.027979850769042969e+00,2.556527561727471642e+00
3.032940387725830078e+00,2.561740584580967983e+00
3.037932395935058594e+00,2.568685122571602086e+00
3.042961597442626953e+00,2.580027291778003384e+00
3.048092603683471680e+00,2.589441846542578585e+00
3.052735328674316406e+00,2.596406650114852166e+00
3.056516170501708984e+00,2.592116903318989696e+00
3.060521364212036133e+00,2.597797226643231649e+00
3.064500570297241211e+00,2.601456952268713874e+00
3.068510770797729492e+00,2.614555670566042878e+00
3.072509288787841797e+00,2.621651008325935450e+00
3.076506853103637695e+00,2.629236892370807155e+00
3.080508947372436523e+00,2.638329582015225938e+00
3.084506511688232422e+00,2.641939239733128719e+00
3.088510036468505859e+00,2.645203786516641120e+00
3.092506647109985352e+00,2.690805517531098978e+00
3.096508502960205078e+00,2.653847653132397344e+00
3.100506067276000977e+00,2.693227254537016613e+00
3.104504585266113281e+00,2.695083343396585285e+00
3.108507633209228516e+00,2.656787950609678095e+00
3.112504720687866211e+00,2.656668145259397651e+00
3.116504192352294922e+00,2.693797075008997233e+00
3.120505094528198242e+00,2.691818796613072884e+00
3.124501705169677734e+00,2.650490123091950867e+00
3.128505229949951172e+00,2.646240907459367353e+00
3.132504224777221680e+00,2.642923312535681024e+00
3.136503219604492188e+00,2.637678699216687406e+00
3.140504360198974609e+00,2.631092981230375827e+00
3.144501924514770508e+00,2.626640513734878724e+00
3.148628234863281250e+00,2.621641471581634519e+00
3.152652025222778320e+00,2.651938516132654744e+00
3.156924724578857422e+00,2.610201550746149124e+00
3.161920785903930664e+00,2.599131178752324356e+00
3.166949510574340820e+00,2.589570592590641152e+00
3.171932458877563477e+00,2.580801556205935210e+00
3.176921367645263672e+00,2.573067852624398633e+00
3.181922435760498047e+00,2.566314645566301955e+00
3.186949253082275391e+00,2.557394809412337544e+00
3.191924810409545898e+00,2.552588290284668382e+00
3.196964025497436523e+00,2.573561975188490614e+00
3.201925516128540039e+00,2.576539227549937472e+00
3.206948280334472656e+00,2.532880608186794280e+00
3.212005138397216797e+00,2.516212167288323531e+00
3.217032670974731445e+00,2.534289662157256817e+00
3.222117185592651367e+00,2.478556928462615883e+00
3.227062940597534180e+00,2.466684277854475749e+00
3.231997013092041016e+00,2.499231994060515660e+00
3.237034559249877930e+00,2.445311241783051592e+00
3.242037296295166016e+00,2.445540123646273933e+00
3.246948480606079102e+00,2.464288766895385674e+00
3.252118825912475586e+00,2.474139627711728462e+00
3.256498336791992188e+00,2.481484112916482854e+00
3.260494947433471680e+00,2.476043400292801788e+00
3.264494419097900391e+00,2.494637071447023402e+00
3.268493413925170898e+00,2.501629889205680968e+00
3.272491455078125000e+00,2.509162129063859936e+00
3.276495456695556641e+00,2.518478932199351039e+00
3.280494689941406250e+00,2.519275846394997576e+00
3.284492254257202148e+00,2.521826925495496585e+00
3.288511514663696289e+00,2.528589073251375385e+00
3.292521715164184570e+00,2.574582406828690218e+00
3.296495437622070312e+00,2.545730775085779829e+00
3.300495386123657227e+00,2.545098965775843158e+00
3.304489374160766602e+00,2.549033468846496397e+00
3.308490276336669922e+00,2.556785649870115584e+00
3.312488794326782227e+00,2.563296862041576141e+00
3.316493988037109375e+00,2.566695519291820382e+00
3.320492982864379883e+00,2.570404120731844877e+00
3.324486970901489258e+00,2.569688268862756253e+00
3.328605413436889648e+00,2.609191847943287623e+00
3.332518815994262695e+00,2.555637664274891030e+00
3.336486816406250000e+00,2.569672771653267240e+00
3.340486526489257812e+00,2.572315641917662710e+00
3.344484329223632812e+00,2.567677207908297454e+00
3.348482608795166016e+00,2.572344848197084310e+00
3.352700471878051758e+00,2.615332915226568744e+00
3.356908798217773438e+00,2.579071829208353872e+00
3.361910820007324219e+00,2.578475782689545692e+00
3.366933345794677734e+00,2.572796651458340911e+00
3.371917009353637695e+00,2.573665091236244429e+00
3.376912117004394531e+00,2.573657342631499922e+00
3.381904363632202148e+00,2.575377532884780329e+00
3.386934757232666016e+00,2.565324612298561568e+00
3.391906976699829102e+00,2.569533892814384934e+00
3.396907329559326172e+00,2.571078249344616928e+00
3.401903152465820312e+00,2.569535680953941359e+00
3.406925439834594727e+00,2.557566470809754300e+00
3.411906003952026367e+00,2.562197752260893857e+00
3.416900873184204102e+00,2.560926981082794818e+00
3.421902656555175781e+00,2.559785551999277153e+00
3.426948070526123047e+00,2.552337950746768946e+00
3.431958436965942383e+00,2.556973404523540161e+00
3.436943769454956055e+00,2.552482790050839334e+00
3.441957473754882812e+00,2.551302021897080330e+00
3.446953773498535156e+00,2.548211520697059917e+00
3.451910495758056641e+00,2.544542258327276318e+00
3.456290960311889648e+00,2.539783422921111811e+00
3.460145950317382812e+00,2.536849681955537950e+00
3.464146614074707031e+00,2.531481687007151482e+00
3.468147754669189453e+00,2.524174752733082006e+00
3.472179889678955078e+00,2.517537774746152923e+00
3.476236343383789062e+00,2.511130274668964546e+00
3.480184555053710938e+00,2.530691329323211836e+00
3.484266757965087891e+00,2.527340951840991057e+00
3.488161325454711914e+00,2.520798745250552475e+00
3.492137908935546875e+00,2.545997803926205894e+00
3.496139049530029297e+00,2.555440968923684331e+00
3.500136852264404297e+00,2.562750883430347848e+00
3.504136323928833008e+00,2.571119972600933501e+00
3.508136749267578125e+00,2.577081629882052916e+00
3.512137651443481445e+00,2.583452175075075186e+00
3.516136169433593750e+00,2.588910173047801688e+00
3.520135402679443359e+00,2.591597746801107771e+00
3.524134874343872070e+00,2.594473671254357239e+00
3.528135299682617188e+00,2.598066043623214139e+00
3.532133579254150391e+00,2.600918722262230087e+00
3.536133527755737305e+00,2.601691198550605488e+00
3.540133714675903320e+00,2.601222109940303451e+00
3.544133186340332031e+00,2.601761532039824854e+00
3.548133373260498047e+00,2.603941274159106367e+00
3.552270174026489258e+00,2.598890972005244659e+00
3.556291580200195312e+00,2.598087501297891233e+00
3.560471057891845703e+00,2.592578839371066035e+00
3.564469814300537109e+00,2.595730733362523690e+00
3.568469285964965820e+00,2.594192933343998586e+00
3.572468757629394531e+00,2.591241310982860480e+00
3.576475858688354492e+00,2.585173557421393209e+00
3.580468893051147461e+00,2.589600990963100369e+00
3.584469556808471680e+00,2.585118125095144048e+00
3.588467597961425781e+00,2.580943415277411557e+00
3.592468976974487305e+00,2.579471180375955353e+00
3.596465587615966797e+00,2.581412503887713594e+00
3.600466251373291016e+00,2.616335465471204103e+00
3.604466915130615234e+00,2.614520503821433195e+00
3.608465194702148438e+00,2.614711238707451813e+00
3.612466096878051758e+00,2.571406670976480235e+00
3.616466522216796875e+00,2.568247624426796882e+00
3.620465040206909180e+00,2.566468425568154466e+00
3.624464273452758789e+00,2.565760918350329156e+00
3.628465175628662109e+00,2.563108511341632756e+00
3.632463932037353516e+00,2.561293549691861848e+00
3.636464595794677734e+00,2.557901448953324497e+00
3.640463113784790039e+00,2.555927938929550614e+00
3.644463539123535156e+00,2.555551237529663844e+00
3.648462295532226562e+00,2.554413980771777837e+00
3.652575492858886719e+00,2.550654119331135838e+00
3.656613588333129883e+00,2.548068469532545954e+00
3.660886049270629883e+00,2.549807733274428223e+00
3.665882825851440430e+00,2.544954126471772771e+00
3.670881032943725586e+00,2.540828292468582550e+00
3.675887107849121094e+00,2.539869253619820189e+00
3.680880784988403320e+00,2.539389436172179604e+00
3.685879707336425781e+00,2.536238138227240757e+00
3.690877199172973633e+00,2.534004155874747699e+00
3.695882320404052734e+00,2.534786168907424031e+00
3.700878381729125977e+00,2.533414069821127601e+00
3.705879211425781250e+00,2.532178465387638244e+00
3.710875988006591797e+00,2.531190816305973090e+00
3.715881824493408203e+00,2.533287111912621459e+00
3.720876932144165039e+00,2.532077733525959662e+00
3.725881576538085938e+00,2.533916537036482897e+00
3.730878591537475586e+00,2.533813420988729082e+00
3.735879659652709961e+00,2.532688681207738046e+00
3.740878582000732422e+00,2.534348074716100019e+00
3.745874404907226562e+00,2.535947267526062365e+00
3.750875711441040039e+00,2.534213368202849370e+00
3.756031751632690430e+00,2.534941141002314158e+00
3.760459423065185547e+00,2.534654442626767423e+00
3.764455318450927734e+00,2.539677922687282763e+00
3.768454074859619141e+00,2.540813987352131154e+00
3.772453069686889648e+00,2.541394536661450321e+00
3.776456117630004883e+00,2.539705340827147939e+00
3.780453681945800781e+00,2.543669050177222335e+00
3.784452438354492188e+00,2.542895977842328126e+00
3.788453340530395508e+00,2.542165820856788105e+00
3.792452573776245117e+00,2.546064561136312410e+00
3.796450853347778320e+00,2.548339074652084868e+00
3.800450801849365234e+00,2.547099297892963854e+00
3.804450988769531250e+00,2.547767466040547824e+00
3.808449268341064453e+00,2.550691670261820754e+00
3.812448263168334961e+00,2.549959725136724309e+00
3.816448450088500977e+00,2.549754089087735487e+00
3.820449113845825195e+00,2.549648588853906439e+00
3.824448585510253906e+00,2.550779885146604364e+00
3.828449010848999023e+00,2.550683921657076247e+00
3.832448482513427734e+00,2.552076882371530964e+00
3.836450099945068359e+00,2.552320665397723509e+00
3.840446949005126953e+00,2.551771706553901176e+00
3.844446182250976562e+00,2.553333348433178607e+00
3.848445892333984375e+00,2.555569118925228089e+00
3.852447271347045898e+00,2.555976814744092884e+00
3.856623649597167969e+00,2.558194703840578121e+00
3.860868930816650391e+00,2.562224574354240225e+00
3.865865468978881836e+00,2.564121790423606662e+00
3.870864152908325195e+00,2.566482730684605862e+00
3.875870227813720703e+00,2.573759266586216121e+00
3.880865812301635742e+00,2.579347798746562059e+00
3.885864496231079102e+00,2.583708475078162703e+00
3.890863656997680664e+00,2.589568208404565919e+00
3.895868778228759766e+00,2.598361682696542996e+00
3.900863885879516602e+00,2.604139757649869491e+00
3.905861616134643555e+00,2.610137773768636649e+00
3.910863399505615234e+00,2.618208243633299404e+00
3.915866374969482422e+00,2.627191856764776290e+00
3.920861482620239258e+00,2.632197455429727384e+00
3.925860881805419922e+00,2.639797048544531677e+00
3.930860280990600586e+00,2.644375877902016558e+00
3.935863733291625977e+00,2.646298723971691746e+00
3.940862178802490234e+00,2.648850995165228372e+00
3.945860624313354492e+00,2.652449327999273354e+00
3.950857162475585938e+00,2.650467473324236156e+00
3.955994844436645508e+00,2.649529892150150889e+00
3.960657835006713867e+00,2.648254948646420193e+00
3.964438915252685547e+00,2.693206392908858327e+00
3.968438863754272461e+00,2.648834305862701743e+00
3.972438335418701172e+00,2.645376043960576684e+00
3.976441144943237305e+00,2.643264847190958111e+00
3.980435848236083984e+00,2.641086297164714214e+00
3.984436750411987305e+00,2.634551839179019694e+00
3.988434076309204102e+00,2.630526737037508056e+00
3.992437124252319336e+00,2.628354147476452241e+00
3.996435880661010742e+00,2.625653460699732378e+00
4.000434875488281250e+00,2.618484809218026399e+00
4.004433631896972656e+00,2.652883249864965709e+00
4.008433341979980469e+00,2.611477686342917437e+00
4.012434959411621094e+00,2.606448245817213571e+00
4.016433238983154297e+00,2.600918126215711279e+00
4.020468950271606445e+00,2.581085870395406712e+00
4.024435520172119141e+00,2.588246773272368184e+00
4.028432846069335938e+00,2.583963582988212604e+00
4.032431840896606445e+00,2.581237862257702798e+00
4.036432266235351562e+00,2.616223408725668165e+00
4.040430068969726562e+00,2.612021876814589305e+00
4.044432401657104492e+00,2.571274348649304820e+00
4.048429727554321289e+00,2.569572635838107466e+00
4.052431344985961914e+00,2.565360375089690059e+00
4.056565761566162109e+00,2.563090629946068510e+00
4.060575008392333984e+00,2.560115761770696885e+00
4.064852237701416016e+00,2.562786050174957531e+00
4.069848299026489258e+00,2.555745548694795310e+00
4.074849128723144531e+00,2.552063173301598376e+00
4.079853534698486328e+00,2.550309008396745902e+00
4.084847688674926758e+00,2.547871774181339255e+00
4.089844703674316406e+00,2.545310562290020062e+00
4.094846487045288086e+00,2.545159762520761593e+00
4.099849462509155273e+00,2.544050519949259570e+00
4.104848384857177734e+00,2.541290228520658889e+00
4.109844684600830078e+00,2.542947237842945629e+00
4.114846229553222656e+00,2.542420928766838006e+00
4.119848728179931641e+00,2.542336290161167245e+00
4.124843597412109375e+00,2.542002504110634664e+00
4.129840850830078125e+00,2.542865579469868909e+00
4.134843826293945312e+00,2.542405431557348994e+00
4.139845848083496094e+00,2.542420332720319198e+00
4.144843101501464844e+00,2.544078534135643554e+00
4.149840831756591797e+00,2.544924324145832362e+00
4.154840707778930664e+00,2.545367782755825647e+00
4.159947872161865234e+00,2.548035686974011504e+00
4.164420843124389648e+00,2.545435136012450972e+00
4.168420791625976562e+00,2.548419540932123972e+00
4.172420024871826172e+00,2.548891013728501242e+00
4.176424264907836914e+00,2.551737731902329109e+00
4.180419921875000000e+00,2.553949660533626265e+00
4.184419155120849609e+00,2.553591436575822549e+00
4.188445568084716797e+00,2.554208940769307823e+00
4.192509889602661133e+00,2.576601812434412331e+00
4.196496963500976562e+00,2.550466364677711262e+00
4.200440168380737305e+00,2.575968214984919236e+00
4.204429388046264648e+00,2.545252745777695669e+00
4.208416938781738281e+00,2.550745910495032298e+00
4.212435007095336914e+00,2.553038901452887366e+00
4.216419458389282227e+00,2.555442757063240755e+00
4.220428705215454102e+00,2.558601207566405300e+00
4.224423885345458984e+00,2.558145231979517042e+00
4.228436231613159180e+00,2.560992546199863718e+00
4.232431888580322266e+00,2.562427826217153815e+00
4.236417770385742188e+00,2.564742870896204785e+00
4.240418195724487305e+00,2.565399714159931399e+00
4.244415044784545898e+00,2.567342229764727257e+00
4.248414039611816406e+00,2.569698997700094800e+00
4.252420663833618164e+00,2.569247790485357008e+00
4.256416082382202148e+00,2.569790788863991260e+00
4.260585308074951172e+00,2.570949503296554361e+00
4.264847755432128906e+00,2.574426838687281283e+00
4.269843339920043945e+00,2.568408556986875091e+00
4.274837017059326172e+00,2.568891950713628525e+00
4.279839038848876953e+00,2.568544455593163356e+00
4.284832715988159180e+00,2.566695519291820382e+00
4.289840459823608398e+00,2.564285703216278911e+00
4.294834136962890625e+00,2.563101954829925866e+00
4.299836158752441406e+00,2.561394281553540431e+00
4.304830551147460938e+00,2.559344477575359100e+00
4.309834241867065430e+00,2.557958669419130082e+00
4.314831018447875977e+00,2.555891580091903315e+00
4.319836139678955078e+00,2.551911777485821098e+00
4.324828624725341797e+00,2.550946182125351847e+00
4.329832553863525391e+00,2.549144929545513527e+00
4.334827423095703125e+00,2.545879190668963066e+00
4.339830160140991211e+00,2.544001644134717299e+00
4.344827890396118164e+00,2.543303673661192921e+00
4.349888563156127930e+00,2.541191880845055540e+00
4.354828119277954102e+00,2.577458331281939685e+00
4.359953880310058594e+00,2.577253291279469671e+00
4.364619493484497070e+00,2.536127273574742436e+00
4.368405818939208984e+00,2.540021841528635083e+00
4.372967958450317383e+00,2.574728438225798222e+00
4.376982450485229492e+00,2.518593373130962210e+00
4.381576538085937500e+00,2.537317578472802371e+00
4.385642290115356445e+00,2.487698493921577381e+00
4.389580488204956055e+00,2.480755744070499258e+00
4.393620729446411133e+00,2.468896802532291712e+00
4.397672653198242188e+00,2.463915045728092945e+00
4.403135776519775391e+00,2.499872148021715645e+00
4.407052993774414062e+00,2.433942846529823179e+00
4.411483049392700195e+00,2.441923313370145898e+00
4.415507078170776367e+00,2.447076731571761421e+00
4.419474601745605469e+00,2.443748407810736545e+00
4.423438310623168945e+00,2.450143390911029506e+00
4.427420139312744141e+00,2.456007296563064823e+00
4.431435585021972656e+00,2.461890275703701558e+00
4.435417413711547852e+00,2.465218003418207626e+00
4.439473152160644531e+00,2.468070086010704767e+00
4.443559885025024414e+00,2.492971717473473348e+00
4.447549581527709961e+00,2.477379140541450919e+00
4.451519012451171875e+00,2.483431992939947985e+00
4.455516099929809570e+00,2.488780914399733035e+00
4.459500551223754883e+00,2.498464882190809533e+00
4.463343858718872070e+00,2.506991327642360545e+00
4.466414928436279297e+00,2.502899468290742391e+00
4.469423055648803711e+00,2.498666345914166698e+00
4.472416400909423828e+00,2.499658763367982317e+00
4.475418090820312500e+00,2.500722706404054918e+00
4.478420972824096680e+00,2.499946057790047860e+00
4.481421232223510742e+00,2.501549422925641863e+00
4.484450101852416992e+00,2.502575218984510741e+00
4.487462282180786133e+00,2.500555217332269820e+00
4.490431547164916992e+00,2.500223219421293663e+00
4.493412494659423828e+00,2.503455579692790423e+00
4.496415376663208008e+00,2.508102954399937801e+00
4.499408483505249023e+00,2.507586182068131109e+00
4.502403259277343750e+00,2.510073484191117643e+00
4.505423784255981445e+00,2.512033285144958938e+00
4.508404493331909180e+00,2.516386808918334328e+00
4.511403799057006836e+00,2.518871726855245630e+00
4.514403820037841797e+00,2.522394957827920781e+00
4.517397642135620117e+00,2.524107995522975489e+00
4.520404100418090820e+00,2.525371614142848831e+00
4.523402690887451172e+00,2.527391615795089752e+00
4.526395797729492188e+00,2.529933158151287831e+00
4.529453277587890625e+00,2.533186380050942876e+00
4.532425165176391602e+00,2.533409897495495944e+00
4.535403251647949219e+00,2.536387149856942802e+00
4.538415431976318359e+00,2.537020747306435897e+00
4.541380882263183594e+00,2.542154495972930750e+00
4.544391155242919922e+00,2.543151681798896835e+00
4.547401905059814453e+00,2.546172445556216690e+00
4.550393342971801758e+00,2.545233076242574999e+00
4.553397893905639648e+00,2.548463052327996969e+00
4.556396484375000000e+00,2.549135988847731404e+00
4.559381723403930664e+00,2.551829523066225569e+00
4.562380313873291016e+00,2.552547163074870618e+00
4.564917325973510742e+00,2.551553553528017382e+00
4.567581892013549805e+00,2.519448699885451948e+00
4.569711923599243164e+00,2.520053687102042250e+00
4.571739912033081055e+00,2.504751980871198214e+00
4.573768377304077148e+00,2.504616678311428757e+00
4.575824022293090820e+00,2.490988670705398533e+00
4.578811883926391602e+00,2.457016999365925880e+00
4.580869436264038086e+00,2.465265091093193472e+00
4.583688020706176758e+00,2.411314536489788996e+00
4.585644483566284180e+00,2.405538845722537733e+00
4.587551593780517578e+00,2.434854201657080885e+00
4.589540958404541016e+00,2.430239609508467957e+00
4.591534376144409180e+00,2.427220037844185718e+00
4.593588352203369141e+00,2.425897410618950367e+00
4.595538854598999023e+00,2.416335036317710294e+00
4.597558975219726562e+00,2.419631769613238337e+00
4.599539041519165039e+00,2.415743162124533772e+00
4.601563692092895508e+00,2.410727430668762938e+00
4.603570222854614258e+00,2.411565472074207239e+00
4.605623483657836914e+00,2.404371190592192509e+00
4.607642889022827148e+00,2.386835502008855414e+00
4.609609365463256836e+00,2.387216375734373841e+00
4.611562013626098633e+00,2.405616331769982796e+00
4.613513231277465820e+00,2.429750851363045250e+00
4.615508794784545898e+00,2.453356081647406040e+00
4.617506742477416992e+00,2.466361220641281715e+00
4.619508266448974609e+00,2.480264601739001318e+00
4.621520042419433594e+00,2.491669951876396283e+00
4.623507738113403320e+00,2.504953444594555378e+00
4.625506401062011719e+00,2.514970006343126840e+00
4.627509593963623047e+00,2.529288235817937380e+00
4.629507064819335938e+00,2.536769811722017653e+00
4.631506681442260742e+00,2.548432653955537752e+00
4.633506059646606445e+00,2.555026716593112646e+00
4.635506153106689453e+00,2.566660948593729508e+00
4.637504816055297852e+00,2.573297330534139782e+00
4.639507293701171875e+00,2.583550522750678535e+00
4.641505956649780273e+00,2.590341280739460128e+00
4.643505811691284180e+00,2.597853851062518427e+00
4.645504713058471680e+00,2.605083895335661648e+00
4.647505760192871094e+00,2.612925483337102506e+00
4.649504184722900391e+00,2.617175891062723636e+00
4.651504278182983398e+00,2.624463155801672443e+00
4.653502702713012695e+00,2.627648428398183356e+00
4.655504703521728516e+00,2.634020165684242798e+00
4.657503128051757812e+00,2.638609127832546974e+00
4.659505367279052734e+00,2.642606215787675072e+00
4.661503314971923828e+00,2.645260410935927897e+00
4.663504123687744141e+00,2.649966198201918477e+00
4.665502309799194336e+00,2.650693374954864456e+00
4.667506456375122070e+00,2.654588538955275911e+00
4.669507026672363281e+00,2.655735928503981658e+00
4.671506166458129883e+00,2.658723313656248255e+00
4.673505306243896484e+00,2.660222966697569635e+00
4.675505161285400391e+00,2.661856730205622856e+00
4.677504539489746094e+00,2.659547645991759968e+00
4.679506063461303711e+00,2.664802988148091689e+00
4.681503772735595703e+00,2.664510329307356873e+00
4.683505296707153320e+00,2.663351614874793771e+00
4.685503005981445312e+00,2.664025743487565823e+00
4.687504768371582031e+00,2.663093526732149829e+00
4.689502954483032227e+00,2.663969119068279046e+00
4.691504478454589844e+00,2.664903123963251463e+00
4.693502902984619141e+00,2.663087566266961748e+00
4.695504665374755859e+00,2.664016802789783700e+00
4.697502374649047852e+00,2.661387045548802011e+00
4.699504137039184570e+00,2.657146174567481811e+00
4.701502561569213867e+00,2.657494861780984596e+00
4.703503847122192383e+00,2.655032593611788005e+00
4.705498695373535156e+00,2.654191571973749664e+00
4.707502841949462891e+00,2.654763180585286708e+00
4.709504842758178711e+00,2.649312335170785904e+00
4.711505413055419922e+00,2.648400980043528197e+00
4.713500976562500000e+00,2.648170906087268239e+00
4.715503692626953125e+00,2.645699697220289526e+00
4.717501401901245117e+00,2.644448595577311156e+00
4.719502687454223633e+00,2.643154578584978598e+00
4.721501350402832031e+00,2.641138749258369334e+00
4.723501920700073242e+00,2.640649395066427818e+00
4.725499629974365234e+00,2.639048414116908603e+00
4.727501869201660156e+00,2.636699394786285566e+00
4.729499578475952148e+00,2.638656811554051629e+00
4.731501817703247070e+00,2.636517600598049071e+00
4.733500242233276367e+00,2.634717540111248368e+00
4.735501050949096680e+00,2.634127454057628270e+00
4.737499713897705078e+00,2.633091525207939654e+00
4.739500761032104492e+00,2.633323387303756036e+00
4.741499662399291992e+00,2.633946851962429392e+00
4.743500471115112305e+00,2.632837609390927369e+00
4.745497941970825195e+00,2.635976986405490052e+00
4.747499465942382812e+00,2.635371403142380942e+00
4.749498844146728516e+00,2.632889465438063681e+00
4.751498937606811523e+00,2.633741215913440570e+00
4.753498792648315430e+00,2.633604721260633497e+00
4.755499601364135742e+00,2.634185866616471472e+00
4.757497549057006836e+00,2.636084274778875525e+00
4.759499073028564453e+00,2.635684923611274044e+00
4.761497020721435547e+00,2.637796716427411425e+00
4.763499021530151367e+00,2.638987021325471360e+00
4.765496492385864258e+00,2.637791948055260960e+00
4.767497777938842773e+00,2.638475017365815134e+00
4.769495725631713867e+00,2.639450149470585316e+00
4.771500349044799805e+00,2.640397863435490322e+00
4.773495912551879883e+00,2.640471773203822536e+00
4.775500774383544922e+00,2.642035203222656836e+00
4.777498960494995117e+00,2.636221961524720214e+00
4.779496908187866211e+00,2.642748074859151419e+00
4.781497955322265625e+00,2.642764764161678048e+00
4.783496856689453125e+00,2.643483000216841905e+00
4.785495519638061523e+00,2.642978744861930185e+00
4.787495851516723633e+00,2.643437700681412483e+00
4.789495706558227539e+00,2.644456344182055663e+00
4.791495561599731445e+00,2.646162229318884673e+00
4.793494939804077148e+00,2.646143155830282812e+00
4.795496225357055664e+00,2.648123222365763585e+00
4.797495365142822266e+00,2.647863942130082027e+00
4.799495935440063477e+00,2.646633702115261944e+00
4.801494836807250977e+00,2.645383792565321190e+00
4.803495645523071289e+00,2.646346407693196401e+00
4.805492877960205078e+00,2.644617872788652679e+00
4.807494640350341797e+00,2.646809535838310357e+00
4.809493303298950195e+00,2.644241171388765910e+00
4.811494350433349609e+00,2.645843940477841105e+00
4.813493013381958008e+00,2.644247131853953992e+00
4.815495014190673828e+00,2.641625719264235617e+00
4.817492961883544922e+00,2.641840296011006561e+00
4.819495201110839844e+00,2.639934139243857558e+00
4.821492671966552734e+00,2.638754563183136170e+00
4.823498010635375977e+00,2.639549689239226282e+00
4.825492382049560547e+00,2.635904268730195454e+00
4.827493190765380859e+00,2.635774330589095271e+00
4.829491138458251953e+00,2.635510878027782056e+00
4.831493139266967773e+00,2.632978872415884908e+00
4.833491563796997070e+00,2.630884960995311772e+00
4.835492372512817383e+00,2.628825620272829511e+00
4.837491035461425781e+00,2.626130893961297730e+00
4.839493513107299805e+00,2.624726608362985658e+00
4.841491460800170898e+00,2.623820021607878417e+00
4.843492031097412109e+00,2.622443750195950329e+00
4.845490455627441406e+00,2.620907738316981650e+00
4.847491741180419922e+00,2.618054463631446893e+00
4.849490404129028320e+00,2.614165260096223520e+00
4.851494550704956055e+00,2.612750245660572901e+00
4.853560924530029297e+00,2.610482288656507777e+00
4.855526447296142578e+00,2.570796319341220659e+00
4.857532262802124023e+00,2.595142435448460017e+00
4.859497785568237305e+00,2.574186631940201586e+00
4.861487150192260742e+00,2.586552809065915337e+00
4.863491773605346680e+00,2.585302899515974584e+00
4.865489244461059570e+00,2.583222697165334036e+00
4.867490530014038086e+00,2.582262466223534059e+00
4.869488716125488281e+00,2.580488631783560916e+00
4.871490240097045898e+00,2.579204747582048096e+00
4.873487949371337891e+00,2.579087922464361693e+00
4.875489950180053711e+00,2.577330181280395927e+00
4.877488374710083008e+00,2.577473232444909890e+00
4.879489183425903320e+00,2.577808210588480087e+00
4.881488084793090820e+00,2.576830098251115864e+00
4.883489847183227539e+00,2.574159213800336410e+00
4.885487556457519531e+00,2.573769399377035860e+00
4.887489318847656250e+00,2.571337529580298487e+00
4.889487266540527344e+00,2.571336933533779678e+00
4.891488075256347656e+00,2.572070666798432548e+00
4.893486022949218750e+00,2.569839068632014722e+00
4.895488023757934570e+00,2.571568795629596060e+00
4.897486925125122070e+00,2.570182391426848234e+00
4.899488687515258789e+00,2.567190833948949980e+00
4.901487350463867188e+00,2.563856549722737022e+00
4.903487920761108398e+00,2.563373155995983588e+00
4.905485868453979492e+00,2.561800785279367609e+00
4.907487154006958008e+00,2.562556572265216381e+00
4.909485816955566406e+00,2.561421699693405607e+00
4.911486864089965820e+00,2.561549849694949366e+00
4.913485050201416016e+00,2.560587234567074155e+00
4.915487051010131836e+00,2.558608956171149806e+00
4.917484521865844727e+00,2.558229870585187804e+00
4.919486045837402344e+00,2.557869858487827663e+00
4.921484231948852539e+00,2.556975192663096585e+00
4.923485994338989258e+00,2.557316727318373673e+00
4.925482273101806641e+00,2.555964893813716721e+00
4.927486896514892578e+00,2.556023306372559922e+00
4.929485797882080078e+00,2.552931613079501894e+00
4.931486129760742188e+00,2.553941911928881758e+00
4.933483600616455078e+00,2.552891677962741745e+00
4.935484886169433594e+00,2.551983303068078079e+00
4.937483072280883789e+00,2.550005024672153731e+00
4.939485073089599609e+00,2.550766176076671776e+00
4.941482782363891602e+00,2.550900286543403617e+00
4.943483829498291016e+00,2.550120061650283709e+00
4.945482492446899414e+00,2.550733393518137326e+00
4.947484493255615234e+00,2.549507325828948900e+00
4.949482440948486328e+00,2.547058170683166090e+00
4.951483964920043945e+00,2.546685641608910533e+00
4.953481912612915039e+00,2.545771306249058785e+00
4.955482959747314453e+00,2.545178239962844646e+00
4.957481145858764648e+00,2.546418016721965660e+00
4.959482431411743164e+00,2.544250195533060310e+00
4.961481809616088867e+00,2.531956736082641601e+00
4.963482856750488281e+00,2.529471818145730300e+00
4.965480804443359375e+00,2.525213661815364663e+00
4.967482089996337891e+00,2.523735466448720377e+00
4.969480752944946289e+00,2.520605626178458625e+00
4.971482038497924805e+00,2.517853679401121259e+00
4.973480463027954102e+00,2.516571583339164864e+00
4.975485801696777344e+00,2.514165343542735798e+00
4.977480649948120117e+00,2.506879270896824607e+00
4.979480981826782227e+00,2.510021628143981332e+00
4.981480121612548828e+00,2.507298887646065566e+00
4.983480453491210938e+00,2.506407202053928529e+00
4.985479831695556641e+00,2.505018413665105470e+00
4.987489461898803711e+00,2.503291070853599365e+00
4.989480972290039062e+00,2.501867711766685431e+00
4.991480350494384766e+00,2.503578961322183716e+00
4.993479728698730469e+00,2.502687871776565487e+00
4.995480298995971680e+00,2.503910959233159872e+00
4.997478246688842773e+00,2.503823936441413878e+00
4.999480247497558594e+00,2.502559125728502920e+00
5.001477718353271484e+00,2.502890527592960268e+00
5.003487586975097656e+00,2.501628697112643351e+00
5.005478143692016602e+00,2.501761615486337575e+00
5.007479190826416016e+00,2.504865229709771768e+00
5.009477853775024414e+00,2.503860295279061177e+00
5.011479139328002930e+00,2.505458892042504715e+00
5.013477325439453125e+00,2.506848872524365390e+00
5.015479326248168945e+00,2.505878508791745674e+00
5.017512798309326172e+00,2.507635653929192188e+00
5.019499540328979492e+00,2.477503118217363021e+00
5.021495580673217773e+00,2.483810482479391180e+00
5.023492336273193359e+00,2.501139342920701836e+00
5.025491476058959961e+00,2.501350939434878740e+00
5.027491092681884766e+00,2.506445945077651061e+00
5.029490232467651367e+00,2.509545386975453596e+00
5.031490802764892578e+00,2.512360514683784629e+00
5.033489942550659180e+00,2.513713540281479197e+00
5.035489797592163086e+00,2.515782417748262834e+00
5.037489414215087891e+00,2.518604101968300757e+00
5.039489984512329102e+00,2.521869840844850774e+00
5.041489124298095703e+00,2.525247636466936729e+00
5.043491125106811523e+00,2.529053393489526957e+00
5.045487880706787109e+00,2.542995517610969092e+00
5.047488927841186523e+00,2.548843330006996588e+00
5.049488306045532227e+00,2.553122347965520511e+00
5.051489114761352539e+00,2.558400935936085752e+00
5.053495645523071289e+00,2.562409944821589569e+00
5.055489063262939453e+00,2.566141792075847583e+00
5.057486772537231445e+00,2.573132821694948724e+00
5.059488773345947266e+00,2.575209447766476423e+00
5.061488389968872070e+00,2.580718705739820873e+00
5.063489198684692383e+00,2.585149715560640882e+00
5.065486431121826172e+00,2.586264322550812178e+00
5.067487239837646484e+00,2.591054152375954711e+00
5.069486141204833984e+00,2.593481253800541619e+00
5.071487903594970703e+00,2.596695136629955325e+00
5.073485612869262695e+00,2.601050448542886695e+00
5.075486421585083008e+00,2.602739048330670268e+00
5.077485561370849609e+00,2.605395627664998326e+00
5.079486846923828125e+00,2.609587026785257891e+00
5.081499338150024414e+00,2.610925747266501062e+00
5.083487749099731445e+00,2.610858394009875738e+00
5.085484504699707031e+00,2.612452818447687619e+00
5.087486028671264648e+00,2.613372518226208641e+00
5.089484453201293945e+00,2.615328742900937087e+00
5.091485500335693359e+00,2.617616965486641689e+00
5.093484163284301758e+00,2.617803528047028649e+00
5.095485448837280273e+00,2.620234205750728407e+00
5.097483873367309570e+00,2.620014860631806997e+00
5.099484682083129883e+00,2.618861510617913169e+00
5.101483821868896484e+00,2.619726374116703838e+00
5.103485345840454102e+00,2.619145824807384670e+00
5.105483293533325195e+00,2.617162778039309856e+00
5.107484579086303711e+00,2.619970157142896383e+00
5.109483242034912109e+00,2.617649151998657331e+00
5.111483812332153320e+00,2.618888332711259537e+00
5.113482713699340820e+00,2.617811276651773156e+00
5.115483999252319336e+00,2.616003467560227946e+00
5.117482185363769531e+00,2.615722133603350485e+00
5.119483232498168945e+00,2.613864852650744197e+00
5.121482372283935547e+00,2.613237215666439184e+00
5.123483657836914062e+00,2.612842632870988169e+00
5.125481128692626953e+00,2.609878493532955090e+00
5.127483367919921875e+00,2.609982801673746522e+00
5.129481315612792969e+00,2.609886838184218405e+00
5.131481885910034180e+00,2.607086611638857132e+00
5.133480548858642578e+00,2.605312777198883989e+00
5.135482072830200195e+00,2.604222012069465020e+00
5.137481212615966797e+00,2.600527715745891921e+00
5.139481306076049805e+00,2.599354100150358615e+00
5.141481161117553711e+00,2.599010181309006295e+00
5.143482446670532227e+00,2.596612882210359796e+00
5.145480155944824219e+00,2.595268201263928542e+00
5.147481441497802734e+00,2.594029020551326337e+00
5.149479627609252930e+00,2.590809177256724549e+00
5.151480674743652344e+00,2.588757585138986794e+00
5.153482437133789062e+00,2.585507939518444598e+00
5.155480384826660156e+00,2.583352635306434220e+00
5.157478570938110352e+00,2.583484957633609636e+00
5.159479618072509766e+00,2.580961892719494610e+00
5.161479234695434570e+00,2.580563733644930746e+00
5.163480043411254883e+00,2.578886458741004528e+00
5.165478467941284180e+00,2.574462005431890965e+00
5.167479753494262695e+00,2.573122688904128985e+00
5.169477462768554688e+00,2.571256467253740574e+00
5.171479463577270508e+00,2.569783040259246754e+00
5.173477888107299805e+00,2.568815656759221078e+00
5.175482273101806641e+00,2.565906353700918352e+00
5.177479267120361328e+00,2.563922114839805921e+00
5.179478168487548828e+00,2.560530610147787378e+00
5.181475400924682617e+00,2.556461400563883934e+00
5.183478355407714844e+00,2.555261558921523068e+00
5.185477018356323242e+00,2.548189466975864015e+00
5.187477827072143555e+00,2.548753923029175361e+00
5.189477682113647461e+00,2.547570770689341124e+00
5.191477775573730469e+00,2.547930782786701265e+00
5.193476438522338867e+00,2.545983498809754497e+00
5.195476770401000977e+00,2.546981876728758643e+00
5.197474956512451172e+00,2.544460003907680790e+00
5.199476718902587891e+00,2.541789119456901336e+00
5.201476335525512695e+00,2.540531461302216076e+00
5.203476190567016602e+00,2.538731400815415373e+00
5.205476284027099609e+00,2.536171381017134241e+00
5.207476377487182617e+00,2.536713783349249685e+00
5.209474563598632812e+00,2.534475032624606161e+00
5.211475849151611328e+00,2.534781996581792374e+00
5.213474512100219727e+00,2.534650270301135766e+00
5.215480804443359375e+00,2.532207671667059845e+00
5.217474460601806641e+00,2.531690899335253153e+00
5.219474792480468750e+00,2.530672851881128782e+00
5.221475362777709961e+00,2.529253069073327698e+00
5.223475456237792969e+00,2.529556456751401061e+00
5.225473880767822266e+00,2.527671161612410788e+00
5.227478981018066406e+00,2.528340521853032374e+00
5.229471683502197266e+00,2.526632252530128131e+00
5.231474637985229492e+00,2.526278200897956072e+00
5.233472824096679688e+00,2.525122466697987011e+00
5.235474109649658203e+00,2.524419727852312167e+00
5.237472772598266602e+00,2.522233429221323764e+00
5.239473581314086914e+00,2.523410621095969919e+00
5.241472005844116211e+00,2.523944082730303240e+00
5.243473291397094727e+00,2.523988190172695045e+00
5.245471715927124023e+00,2.524643841343384043e+00
5.247473478317260742e+00,2.524195614361240292e+00
5.249471187591552734e+00,2.522315087594400485e+00
5.251473188400268555e+00,2.522431912712086888e+00
5.253471374511718750e+00,2.522169652243811289e+00
5.255472898483276367e+00,2.522234025267842572e+00
5.257470846176147461e+00,2.523887458311016463e+00
5.259471654891967773e+00,2.522778811786033248e+00
5.261471271514892578e+00,2.524229589012812358e+00
5.263471364974975586e+00,2.523916068543919256e+00
5.265471220016479492e+00,2.522007527590695464e+00
5.267471790313720703e+00,2.522678675970873474e+00
5.269469976425170898e+00,2.522841396670508107e+00
5.271471500396728516e+00,2.522747817367055223e+00
5.273470163345336914e+00,2.523935142032521117e+00
5.275470256805419922e+00,2.523575129935160977e+00
5.277469873428344727e+00,2.523376646444397853e+00
5.279469966888427734e+00,2.525491419493129275e+00
5.281469345092773438e+00,2.524973455068284967e+00
5.283474206924438477e+00,2.524314823665001928e+00
5.285468339920043945e+00,2.524486485062418684e+00
5.287469625473022461e+00,2.523709836448411625e+00
5.289467573165893555e+00,2.524400058317191498e+00
5.291469335556030273e+00,2.526876035556320677e+00
5.293468713760375977e+00,2.527464929516903158e+00
5.295469284057617188e+00,2.529169622560694553e+00
5.297468185424804688e+00,2.529551688379250596e+00
5.299469232559204102e+00,2.528689805113053968e+00
5.301467657089233398e+00,2.530049983268974234e+00
5.303468465805053711e+00,2.530058923966756357e+00
5.305466890335083008e+00,2.529991570710131032e+00
5.307467937469482422e+00,2.532457415158440472e+00
5.309466600418090820e+00,2.530170980712292295e+00
5.311467409133911133e+00,2.533600036334995753e+00
5.313467025756835938e+00,2.533938590757678799e+00
5.315467834472656250e+00,2.533024851444345860e+00
5.317466259002685547e+00,2.534478608903719010e+00
5.319467544555664062e+00,2.533714477266606924e+00
5.321465730667114258e+00,2.535037104491842275e+00
5.323466777801513672e+00,2.537839715223278336e+00
5.325478792190551758e+00,2.537569706150258231e+00
5.327471494674682617e+00,2.530655566532083345e+00
5.329465866088867188e+00,2.534792129372612113e+00
5.331467151641845703e+00,2.535046641236143206e+00
5.333465576171875000e+00,2.534371916576852346e+00
5.335466146469116211e+00,2.535988394735860130e+00
5.337465286254882812e+00,2.536477748927801645e+00
5.339466333389282227e+00,2.538172309180773301e+00
5.341464519500732422e+00,2.540227477577623905e+00
5.343465805053710938e+00,2.541566794105385885e+00
5.345464229583740234e+00,2.543778722736683040e+00
5.347465515136718750e+00,2.544301455533677814e+00
5.349463224411010742e+00,2.543348973196622342e+00
5.351464271545410156e+00,2.544597690653525479e+00
5.353463649749755859e+00,2.543936675064167208e+00
5.355464458465576172e+00,2.546407883931145921e+00
5.357462406158447266e+00,2.549020355823082618e+00
5.359463930130004883e+00,2.547878926739564953e+00
5.361463308334350586e+00,2.550002044439559690e+00
5.363463640213012695e+00,2.550333446304017038e+00
5.365462779998779297e+00,2.550729221192505669e+00
5.367463111877441406e+00,2.550557559795088913e+00
5.369462013244628906e+00,2.551393813060976790e+00
5.371463060379028320e+00,2.552063769348117184e+00
5.373461484909057617e+00,2.553649253088146942e+00
5.375462293624877930e+00,2.552745050519114933e+00
5.377465248107910156e+00,2.554105228675035200e+00
5.379462242126464844e+00,2.554528421703389007e+00
5.381462097167968750e+00,2.553690380297944706e+00
5.383461713790893555e+00,2.553791708206142097e+00
5.385461568832397461e+00,2.553321427502802443e+00
5.387461423873901367e+00,2.553150958198423304e+00
5.389460802078247070e+00,2.553632563785620313e+00
5.391460895538330078e+00,2.556660480101165867e+00
5.393460273742675781e+00,2.555997676372251171e+00
5.395461320877075195e+00,2.557820982673285393e+00
5.397459745407104492e+00,2.558176822445013876e+00
5.399461269378662109e+00,2.556158608932329379e+00
5.401459932327270508e+00,2.557341761272163616e+00
5.403460264205932617e+00,2.556397623586371459e+00
5.405459642410278320e+00,2.557293481504140154e+00
5.407459974288940430e+00,2.558496899425613869e+00
5.409458398818969727e+00,2.557145065920956917e+00
5.411459684371948242e+00,2.559049434548549051e+00
5.413458585739135742e+00,2.559738464324291307e+00
5.415459871292114258e+00,2.558703727567640307e+00
5.417457580566406250e+00,2.559836811999894657e+00
5.419458866119384766e+00,2.558836049894815723e+00
5.421457767486572266e+00,2.558300800120925977e+00
5.423458337783813477e+00,2.559942312233723705e+00
5.425457715988159180e+00,2.559444613390518874e+00
5.427459001541137695e+00,2.559590048741108070e+00
5.429456710815429688e+00,2.561511702717745642e+00
5.431457281112670898e+00,2.559603757811040659e+00
5.433457136154174805e+00,2.558978505012810878e+00
5.435457706451416016e+00,2.559033937339060039e+00
5.437456846237182617e+00,2.557393021272781120e+00
5.439458131790161133e+00,2.558113045467501401e+00
5.441455841064453125e+00,2.558837838034372147e+00
5.443456649780273438e+00,2.558316297330414990e+00
5.445456027984619141e+00,2.559432692460142711e+00
5.447457075119018555e+00,2.558346099656355399e+00
5.449455499649047852e+00,2.557214207317138666e+00
5.451456546783447266e+00,2.556747502892911861e+00
5.453455448150634766e+00,2.556227750328511128e+00
5.455456972122192383e+00,2.556358880562648928e+00
5.457454681396484375e+00,2.557922906628001591e+00
5.459455728530883789e+00,2.556725449171715958e+00
5.462073802947998047e+00,2.557534284297738658e+00
5.464001417160034180e+00,2.563404150414961613e+00
5.466458082199096680e+00,2.536603514743270171e+00
5.468457221984863281e+00,2.540999357819480498e+00
5.470455169677734375e+00,2.539561097569596360e+00
5.472456455230712891e+00,2.541892831551173959e+00
5.474455118179321289e+00,2.542086546669786618e+00
5.476454734802246094e+00,2.542456691557966497e+00
5.478454113006591797e+00,2.544249003440022694e+00
5.480454683303833008e+00,2.544408743907063286e+00
5.482454061508178711e+00,2.542939489238201123e+00
5.484455108642578125e+00,2.544117277159366086e+00
5.486453294754028320e+00,2.544356887859926974e+00
5.488453626632690430e+00,2.545298641359643899e+00
5.490453481674194336e+00,2.547053998357534432e+00
5.492453336715698242e+00,2.545666998108267354e+00
5.494452714920043945e+00,2.547712629760817471e+00
5.496453046798706055e+00,2.548200195813202562e+00
5.498452186584472656e+00,2.547310894407140758e+00
5.500477790832519531e+00,2.546952074402818234e+00
5.502455949783325195e+00,2.526240649967271157e+00
5.504453897476196289e+00,2.541029160145420907e+00
5.506452322006225586e+00,2.543128435984663316e+00
5.508451461791992188e+00,2.544210260416300162e+00
5.510451555252075195e+00,2.543574874827250643e+00
5.512451648712158203e+00,2.545626466944988398e+00
5.514451503753662109e+00,2.545619314386762699e+00
5.516480922698974609e+00,2.545194333218852467e+00
5.518455028533935547e+00,2.527111473931249908e+00
5.520451784133911133e+00,2.539623682454071218e+00
5.522450685501098633e+00,2.540239398508000068e+00
5.524451255798339844e+00,2.542826836446146377e+00
5.526452064514160156e+00,2.542330329695979163e+00
5.528476476669311523e+00,2.542205159927029445e+00
5.530456304550170898e+00,2.523650827843049615e+00
5.532450437545776367e+00,2.536651198464774826e+00
5.534449338912963867e+00,2.537275259169966990e+00
5.536450624465942383e+00,2.538402979183552066e+00
5.538449287414550781e+00,2.538299267089279443e+00
5.540448665618896484e+00,2.540137474553283869e+00
5.542448520660400391e+00,2.539409701753819082e+00
5.544448852539062500e+00,2.541147773402663734e+00
5.546449184417724609e+00,2.542723720398392562e+00
5.548448562622070312e+00,2.541811173178097238e+00
5.550449132919311523e+00,2.542052572018214551e+00
5.552448987960815430e+00,2.543765609713269260e+00
5.554448127746582031e+00,2.542553847140532230e+00
5.556449890136718750e+00,2.545162146706836825e+00
5.558447837829589844e+00,2.543562953896874479e+00
5.560447931289672852e+00,2.546217745091646112e+00
5.562446832656860352e+00,2.548980420706322469e+00
5.564447164535522461e+00,2.548422521164718013e+00
5.566447019577026367e+00,2.548023766043635341e+00
5.568446874618530273e+00,2.548648422795346313e+00
5.570446729660034180e+00,2.549153870243295650e+00
5.572447061538696289e+00,2.551421827247360774e+00
5.574446678161621094e+00,2.554613060309059769e+00
5.576451539993286133e+00,2.555597729158130882e+00
5.578446388244628906e+00,2.551740712134923150e+00
5.580446004867553711e+00,2.558254308492458939e+00
5.582445383071899414e+00,2.557232088712702911e+00
5.584444999694824219e+00,2.559805221534397823e+00
5.586445808410644531e+00,2.562439151101011170e+00
5.588446140289306641e+00,2.563441105299127720e+00
5.590444803237915039e+00,2.567634888605462073e+00
5.592445373535156250e+00,2.568641015129210281e+00
5.594444751739501953e+00,2.572857448203259345e+00
5.596444845199584961e+00,2.576278755221218297e+00
5.598444223403930664e+00,2.577212164069671907e+00
5.600444316864013672e+00,2.581034014348270400e+00
5.602443933486938477e+00,2.583757350892704974e+00
5.604444265365600586e+00,2.585957954640144774e+00
5.606445074081420898e+00,2.589761327476659769e+00
5.608443975448608398e+00,2.592192005180359526e+00
5.610443830490112305e+00,2.595477413592030214e+00
5.612443923950195312e+00,2.599132966891880780e+00
5.614443063735961914e+00,2.601813388086961165e+00
5.616443395614624023e+00,2.604003859043581226e+00
5.618443250656127930e+00,2.608183933279982991e+00
5.620443344116210938e+00,2.609853459579165147e+00
5.622442007064819336e+00,2.614053203350687582e+00
5.624442100524902344e+00,2.618667199452781702e+00
5.626441955566406250e+00,2.621328547159260225e+00
5.628441333770751953e+00,2.624607399059224022e+00
5.630441665649414062e+00,2.628124669566711091e+00
5.632441520690917969e+00,2.629285172138830617e+00
5.634442090988159180e+00,2.631964997287392194e+00
5.636441707611083984e+00,2.636112885011778317e+00
5.638440608978271484e+00,2.637691812240101186e+00
5.640442132949829102e+00,2.642764168115159240e+00
5.642440795898437500e+00,2.642548995321869487e+00
5.644441366195678711e+00,2.646386342809956549e+00
5.646440982818603516e+00,2.648507672370394861e+00
5.648440837860107422e+00,2.649467903312194839e+00
5.650439739227294922e+00,2.651167231937316959e+00
5.652440309524536133e+00,2.652116137995259582e+00
5.654439926147460938e+00,2.651800233340291246e+00
5.656440019607543945e+00,2.654617149188178704e+00
5.658439397811889648e+00,2.654525358024282244e+00
5.660439252853393555e+00,2.656547743862598399e+00
5.662439346313476562e+00,2.657856065971382353e+00
5.664439201354980469e+00,2.657867390855239709e+00
5.666439056396484375e+00,2.656244356184525035e+00
5.668438673019409180e+00,2.656181175253531368e+00
5.670438528060913086e+00,2.654775697562181680e+00
5.672438859939575195e+00,2.655020672681411842e+00
5.674439191818237305e+00,2.656303960836405853e+00
5.676438570022583008e+00,2.654446679883799565e+00
5.678438425064086914e+00,2.655005771518441637e+00
5.680438995361328125e+00,2.653292733823386929e+00
5.682437658309936523e+00,2.650199848437291283e+00
5.684437274932861328e+00,2.650446611696077870e+00
5.686437845230102539e+00,2.647207694912874221e+00
5.688437700271606445e+00,2.644530253950387877e+00
5.690436363220214844e+00,2.645722346988004237e+00
5.692436933517456055e+00,2.641576247403174538e+00
5.694436073303222656e+00,2.642578201601291088e+00
5.696436882019042969e+00,2.639416770865532058e+00
5.698436021804809570e+00,2.636485414086033430e+00
5.700436353683471680e+00,2.634611443830900512e+00
5.702435493469238281e+00,2.632276729616728872e+00
5.704436302185058594e+00,2.629269078882822797e+00
5.706436395645141602e+00,2.628645614224149440e+00
5.708436250686645508e+00,2.625681474886116362e+00
5.710434913635253906e+00,2.623502924859872465e+00
5.712435007095336914e+00,2.622495010196567833e+00
5.714434862136840820e+00,2.617261721761432014e+00
5.716435909271240234e+00,2.614407254982859641e+00
5.718434572219848633e+00,2.612726999846339382e+00
5.720434427261352539e+00,2.608741236775068639e+00
5.722434520721435547e+00,2.607158137221114114e+00
5.724433898925781250e+00,2.605216217662837064e+00
5.726434946060180664e+00,2.602709246004729859e+00
5.728434085845947266e+00,2.599013757588119145e+00
5.730433940887451172e+00,2.597726297107493476e+00
5.732433557510375977e+00,2.593750070780524108e+00
5.734433412551879883e+00,2.591823648431736071e+00
5.736433744430541992e+00,2.589656423289349529e+00
5.738432645797729492e+00,2.587123225584414765e+00
5.740433216094970703e+00,2.586034844641071029e+00
5.742432594299316406e+00,2.582094977151748960e+00
5.744432449340820312e+00,2.581186006210566486e+00
5.746433258056640625e+00,2.578971693393194098e+00
5.748431921005249023e+00,2.574723073807128948e+00
5.750431776046752930e+00,2.573319384255335684e+00
5.752432584762573242e+00,2.571184345624964784e+00
5.754431962966918945e+00,2.567501374185249041e+00
5.756431818008422852e+00,2.567202754879326143e+00
5.758431673049926758e+00,2.565916486491738091e+00
5.760431051254272461e+00,2.563869662746150802e+00
5.762430906295776367e+00,2.563568063207633863e+00
5.764431953430175781e+00,2.561131425038746023e+00
5.766430854797363281e+00,2.558334178725979235e+00
5.768431186676025391e+00,2.557061619408323772e+00
5.770431995391845703e+00,2.555088109384549888e+00
5.772430658340454102e+00,2.552675313076414376e+00
5.774429798126220703e+00,2.553355998200893318e+00
5.776432991027832031e+00,2.551597064923890379e+00
5.778429269790649414e+00,2.546212380672976838e+00
5.780430078506469727e+00,2.548880880937681503e+00
5.782429218292236328e+00,2.545846408110428616e+00
5.784429788589477539e+00,2.545612757875055809e+00
5.786429643630981445e+00,2.544560735769359372e+00
5.788429737091064453e+00,2.543040221099879705e+00
5.790429115295410156e+00,2.544179862043840945e+00
5.792429447174072266e+00,2.541481559453196315e+00
5.794428110122680664e+00,2.541864817364789975e+00
5.796429157257080078e+00,2.541587059687025363e+00
5.798428058624267578e+00,2.539609377337619822e+00
5.800428390502929688e+00,2.539967005248904730e+00
5.802428722381591797e+00,2.539381091520916289e+00
5.804427146911621094e+00,2.537746731966344260e+00
5.806428432464599609e+00,2.538847033840064160e+00
5.808427333831787109e+00,2.536915247072606849e+00
5.810427427291870117e+00,2.538400594997476833e+00
5.812427997589111328e+00,2.539217774774762848e+00
5.814426898956298828e+00,2.537800376153036996e+00
5.816427230834960938e+00,2.535188500307619552e+00
5.818426370620727539e+00,2.535490695892655300e+00
5.820426225662231445e+00,2.534065548666184942e+00
5.822425842285156250e+00,2.534303967273708214e+00
5.824425697326660156e+00,2.535535399381565913e+00
5.826427936553955078e+00,2.534142438667111197e+00
5.828425884246826172e+00,2.533970181223175633e+00
5.830425500869750977e+00,2.534370724483814730e+00
5.832425355911254883e+00,2.532373372599288519e+00
5.834424972534179688e+00,2.533866469128903010e+00
5.836427211761474609e+00,2.533477846798640076e+00
5.838425636291503906e+00,2.532517019810321290e+00
5.840425252914428711e+00,2.535045449143105589e+00
5.842423915863037109e+00,2.533629242614417354e+00
5.844424724578857422e+00,2.535820309617556223e+00
5.846424818038940430e+00,2.536094491016207986e+00
5.848423719406127930e+00,2.534820143558996097e+00
5.850423812866210938e+00,2.535472218450572246e+00
5.852424383163452148e+00,2.535822693803631456e+00
5.854434490203857422e+00,2.535901371944114135e+00
5.856425046920776367e+00,2.534622852161270590e+00
5.858422994613647461e+00,2.536170188924096625e+00
5.860424280166625977e+00,2.538245026856067899e+00
5.862422227859497070e+00,2.540029590133379589e+00
5.864423513412475586e+00,2.540475432929448107e+00
5.866422891616821289e+00,2.540282313857354257e+00
5.868423223495483398e+00,2.540104095948230611e+00
5.870422840118408203e+00,2.540339534323159842e+00
5.872423171997070312e+00,2.541568582244942309e+00
5.874422550201416016e+00,2.544208472276743738e+00
5.876422882080078125e+00,2.543523614826633139e+00
5.878422498703002930e+00,2.543268506916583238e+00
5.880422115325927734e+00,2.546391194628619292e+00
5.882421731948852539e+00,2.545965617414190252e+00
5.884421586990356445e+00,2.547537392084287866e+00
5.886421918869018555e+00,2.548319405116964198e+00
5.888420343399047852e+00,2.547939127437964579e+00
5.890421152114868164e+00,2.551671570738741401e+00
5.892421007156372070e+00,2.551248973756906402e+00
5.894420146942138672e+00,2.553601569366642288e+00
5.896420478820800781e+00,2.555061883337722328e+00
5.898420572280883789e+00,2.554509944261305954e+00
5.900420665740966797e+00,2.555932707301701079e+00
5.902420520782470703e+00,2.556856579405853758e+00
5.904420137405395508e+00,2.557660646159725992e+00
5.906419992446899414e+00,2.559629983857868218e+00
5.908419609069824219e+00,2.560485310612357956e+00
5.910419940948486328e+00,2.561806745744555691e+00
5.912420034408569336e+00,2.564502068102606280e+00
5.914418697357177734e+00,2.564370341821949673e+00
5.916418552398681641e+00,2.563183017156483778e+00
5.918418645858764648e+00,2.565229840902071068e+00
5.920418262481689453e+00,2.564171262284667741e+00
5.922418117523193359e+00,2.565574951836461004e+00
5.924417734146118164e+00,2.568462201173567827e+00
5.926419019699096680e+00,2.568723269548805810e+00
5.928417921066284180e+00,2.569890328632632226e+00
5.930418014526367188e+00,2.571109839810113762e+00
5.932417869567871094e+00,2.570839830737093656e+00
5.934417486190795898e+00,2.571432300976788987e+00
5.936417579650878906e+00,2.572168418427517089e+00
5.938417196273803711e+00,2.572533794943546503e+00
5.940417528152465820e+00,2.574659296829616473e+00
5.942416191101074219e+00,2.574105569613643674e+00
5.944416284561157227e+00,2.575956294054543072e+00
5.946417093276977539e+00,2.575862118704571380e+00
5.948414087295532227e+00,2.573783108446968448e+00
5.950412750244140625e+00,2.575326868930681634e+00
5.952420234680175781e+00,2.575812050796991493e+00
5.954417228698730469e+00,2.571692177258989354e+00
5.956416130065917969e+00,2.574905464041884251e+00
5.958415508270263672e+00,2.575007984043119258e+00
5.960416555404663086e+00,2.574158021707298794e+00
5.962415695190429688e+00,2.576780030343535977e+00
5.964415788650512695e+00,2.575729796377395964e+00
5.966415882110595703e+00,2.574511477292952044e+00
5.968414783477783203e+00,2.574449488454995993e+00
5.970414638519287109e+00,2.573043414717127497e+00
5.972413539886474609e+00,2.572762676806768845e+00
5.974414110183715820e+00,2.574549624270155768e+00
5.976418018341064453e+00,2.573156067509182243e+00
5.978414773941040039e+00,2.570233651427465738e+00
5.980414152145385742e+00,2.571488925396075764e+00
5.982414484024047852e+00,2.569000431180051613e+00
5.984413862228393555e+00,2.569392033742908588e+00
5.986414670944213867e+00,2.568491407452989428e+00
5.988446950912475586e+00,2.566980429527810692e+00
5.990419149398803711e+00,2.550473517235936960e+00
5.992413520812988281e+00,2.559808201766991864e+00
5.994412899017333984e+00,2.561126656666595558e+00
5.996412992477416992e+00,2.561335272948178421e+00
5.998413085937500000e+00,2.560229010609270439e+00
6.000412702560424805e+00,2.560147352236193719e+00
6.002411842346191406e+00,2.560208148981112153e+00
6.004412412643432617e+00,2.557745880811915562e+00
6.006412267684936523e+00,2.558843798499560229e+00
6.008411407470703125e+00,2.557401365924044434e+00
6.010411500930786133e+00,2.558706707800234348e+00
6.012421846389770508e+00,2.558354444307618714e+00
6.014411211013793945e+00,2.556656307775534209e+00
6.016459465026855469e+00,2.556034631256417278e+00
6.018473625183105469e+00,2.529629770473214467e+00
6.020455360412597656e+00,2.514793576573559619e+00
6.022427797317504883e+00,2.520500125944629577e+00
6.024411916732788086e+00,2.536322776832911519e+00
6.026411056518554688e+00,2.536520068230637026e+00
6.028411388397216797e+00,2.537630502895176665e+00
6.030409812927246094e+00,2.537946407550145000e+00
6.032410383224487305e+00,2.537014190794729007e+00
6.034409999847412109e+00,2.537682358942312977e+00
6.036409854888916016e+00,2.537234131960169226e+00
6.038409233093261719e+00,2.538166348715585219e+00
6.040409326553344727e+00,2.540014092923890576e+00
6.042411088943481445e+00,2.539444272451909956e+00
6.044409275054931641e+00,2.541036312703646605e+00
6.046408891677856445e+00,2.541265790613387754e+00
6.048408269882202148e+00,2.538969223376419837e+00
6.050407886505126953e+00,2.540480797348117381e+00
6.052408456802368164e+00,2.539945547574227636e+00
6.054407358169555664e+00,2.539726202455306225e+00
6.056407213211059570e+00,2.541323011079193339e+00
6.058408021926879883e+00,2.540456359440846246e+00
6.060408115386962891e+00,2.541001742005555730e+00
6.062407255172729492e+00,2.542688553653782879e+00
6.064407587051391602e+00,2.541726534572426477e+00
6.066420555114746094e+00,2.539818589665721493e+00
6.068407535552978516e+00,2.539345328729787798e+00
6.070407390594482422e+00,2.539520566406317403e+00
6.072406768798828125e+00,2.540117805018163200e+00
6.074406862258911133e+00,2.541105454099828354e+00
6.076406240463256836e+00,2.540197675251683496e+00
6.078406095504760742e+00,2.541162674565633939e+00
6.080405473709106445e+00,2.540936176888486830e+00
6.082406044006347656e+00,2.539173071285852235e+00
6.084405660629272461e+00,2.539851968270774751e+00
6.086406230926513672e+00,2.538738553373641071e+00
6.088404417037963867e+00,2.537542884056911863e+00
6.090405225753784180e+00,2.540175025483968785e+00
6.092404842376708984e+00,2.537416522194924529e+00
6.094404697418212891e+00,2.539437715940203066e+00
6.096404552459716797e+00,2.539748852223020936e+00
6.098403930664062500e+00,2.537749712198938301e+00
6.100403785705566406e+00,2.537828390339420981e+00
6.102403640747070312e+00,2.537698452198320798e+00
6.104404211044311523e+00,2.537523810568310001e+00
6.106403827667236328e+00,2.537264530332628443e+00
6.108403205871582031e+00,2.537184660099108147e+00
6.110403060913085938e+00,2.537836734990684295e+00
6.112403392791748047e+00,2.539501492917715542e+00
6.114402532577514648e+00,2.538227741507022461e+00
6.116402864456176758e+00,2.536927168002983013e+00
6.118402242660522461e+00,2.537507121265783372e+00
6.120403051376342773e+00,2.535033528212729426e+00
6.122401475906372070e+00,2.537169758936137942e+00
6.124402046203613281e+00,2.539166514774145345e+00
6.126402378082275391e+00,2.538165156622547602e+00
6.128401279449462891e+00,2.538827960351462298e+00
6.130400896072387695e+00,2.539822761991353151e+00
6.132401704788208008e+00,2.537527982893941658e+00
6.134401321411132812e+00,2.538373772904130465e+00
6.136400699615478516e+00,2.538280193600677581e+00
6.138400793075561523e+00,2.538816635467604943e+00
6.140401363372802734e+00,2.541861241085677126e+00
6.142400026321411133e+00,2.538652126628413885e+00
6.144400358200073242e+00,2.540888493166982176e+00
6.146400213241577148e+00,2.540752594560693911e+00
6.148399591445922852e+00,2.539541428034475690e+00
6.150399684906005859e+00,2.540602986884473058e+00
6.152400016784667969e+00,2.540824120142950893e+00
6.154400348663330078e+00,2.539886538968865626e+00
6.156399488449096680e+00,2.540786569212265977e+00
6.158399105072021484e+00,2.541270558985538219e+00
6.160399675369262695e+00,2.541837995271443607e+00
6.162398338317871094e+00,2.543528383198783605e+00
6.164399147033691406e+00,2.542420928766838006e+00
6.166398525238037109e+00,2.541973297831213063e+00
6.168398618698120117e+00,2.541457121545925180e+00
6.170398235321044922e+00,2.541110222471978819e+00
6.172397613525390625e+00,2.542237346439045087e+00
6.174398183822631836e+00,2.543515866221888633e+00
6.176401853561401367e+00,2.543366258545667780e+00
6.178400278091430664e+00,2.544716899957287115e+00
6.180397748947143555e+00,2.539018099190962108e+00
6.182397365570068359e+00,2.537718717779960276e+00
6.184398174285888672e+00,2.539078299889361734e+00
6.186397314071655273e+00,2.539525930824986677e+00
6.188396692276000977e+00,2.538688485466061184e+00
6.190397262573242188e+00,2.540291254555136380e+00
6.192396879196166992e+00,2.539757196874284251e+00
6.194397687911987305e+00,2.540905778516027613e+00
6.196397066116333008e+00,2.541621630385116237e+00
6.198396682739257812e+00,2.537756268710645191e+00
6.200396537780761719e+00,2.538932268492253730e+00
6.202396392822265625e+00,2.539483015475632488e+00
6.204394578933715820e+00,2.538957302446043673e+00
6.206393480300903320e+00,2.540462915952553136e+00
6.208451271057128906e+00,2.540272777113053326e+00
6.210395812988281250e+00,2.537417118241443337e+00
6.212395668029785156e+00,2.541787927363863719e+00
6.214394807815551758e+00,2.541506593406986259e+00
6.216394901275634766e+00,2.540242974787112917e+00
6.218394279479980469e+00,2.541426127126947154e+00
6.220394372940063477e+00,2.540453975254771013e+00
6.222393989562988281e+00,2.540545170372148664e+00
6.224394083023071289e+00,2.543175523659649162e+00
6.226394891738891602e+00,2.542422120859875623e+00
6.228393316268920898e+00,2.542299335277001138e+00
6.230392456054687500e+00,2.543254201800131842e+00
6.232393503189086914e+00,2.541510169686099108e+00
6.234392404556274414e+00,2.542205755973548253e+00
6.236392736434936523e+00,2.542340462486798902e+00
6.238392353057861328e+00,2.543215458776409310e+00
6.240391731262207031e+00,2.544703190887354527e+00
6.242392539978027344e+00,2.542842333655635390e+00
6.244391918182373047e+00,2.545110886706219322e+00
6.246392250061035156e+00,2.545681899271237558e+00
6.248391389846801758e+00,2.544048135763184337e+00
6.250391244888305664e+00,2.544923728099313553e+00
6.252390861511230469e+00,2.544699614608241678e+00
6.254390716552734375e+00,2.544057076460966460e+00
6.256391525268554688e+00,2.545784419272472565e+00
6.258390426635742188e+00,2.544486229954508349e+00
6.260391235351562500e+00,2.546942537658517303e+00
6.262389898300170898e+00,2.548876112565531038e+00
6.264390707015991211e+00,2.547270363243861802e+00
6.266390562057495117e+00,2.546728556958264722e+00
6.268390178680419922e+00,2.546015089275251331e+00
6.270389795303344727e+00,2.545943563692994349e+00
6.272390127182006836e+00,2.547325795570110962e+00
6.274389028549194336e+00,2.548740213959242773e+00
6.276388645172119141e+00,2.547597592782687492e+00
6.278388977050781250e+00,2.549065059311993231e+00
6.280389308929443359e+00,2.549507325828948900e+00
6.282389163970947266e+00,2.547899788367723239e+00
6.284389257431030273e+00,2.548480337677042407e+00
6.286388874053955078e+00,2.547932570926257689e+00
6.288388967514038086e+00,2.548247879534707216e+00
6.290387868881225586e+00,2.549834555367774591e+00
6.292389869689941406e+00,2.548395103024852837e+00
6.294388532638549805e+00,2.548504775584313542e+00
6.296395063400268555e+00,2.549516862573249831e+00
6.298388004302978516e+00,2.547396129059330327e+00
6.300387620925903320e+00,2.548869556053824148e+00
6.302387714385986328e+00,2.548406427908710192e+00
6.304387331008911133e+00,2.547636335806410024e+00
6.306387901306152344e+00,2.549000686287961948e+00
6.308387279510498047e+00,2.548180526278081892e+00
6.310386180877685547e+00,2.549231952337259521e+00
6.312386512756347656e+00,2.550338214676167503e+00
6.314385414123535156e+00,2.548654979307053203e+00
6.316385746002197266e+00,2.547362750454277069e+00
6.318385839462280273e+00,2.547725146737712443e+00
6.320385932922363281e+00,2.546471064862139588e+00
6.322385549545288086e+00,2.546576565095968636e+00
6.324385166168212891e+00,2.548425501397312054e+00
6.326384305953979492e+00,2.547060554869241322e+00
6.328386068344116211e+00,2.548672860702617449e+00
6.330385208129882812e+00,2.547331756035299044e+00
6.332385301589965820e+00,2.545312350429576487e+00
6.334384918212890625e+00,2.546198075556525442e+00
6.336425781250000000e+00,2.545734947411411486e+00
6.338422536849975586e+00,2.501274049433952484e+00
6.340422868728637695e+00,2.490398584651778435e+00
6.342413902282714844e+00,2.478237447528534698e+00
6.344396591186523438e+00,2.475478944239490442e+00
6.346385478973388672e+00,2.498510181726238955e+00
6.348385095596313477e+00,2.504447997146606042e+00
6.350383281707763672e+00,2.506016791584109171e+00
6.352384328842163086e+00,2.508409918357124013e+00
6.354383945465087891e+00,2.509734333721915789e+00
6.356383562088012695e+00,2.513302268183501553e+00
6.358382225036621094e+00,2.514946760528893321e+00
6.360383272171020508e+00,2.518592181037924593e+00
6.362381696701049805e+00,2.521751823634126755e+00
6.364382028579711914e+00,2.522477808294035118e+00
6.366382122039794922e+00,2.523711624587968050e+00
6.368383884429931641e+00,2.526398006248236516e+00
6.370381832122802734e+00,2.527050081139812665e+00
6.372382164001464844e+00,2.530499402344155602e+00
6.374381780624389648e+00,2.534287277971181584e+00
6.376381397247314453e+00,2.535367910309780815e+00
6.378385305404663086e+00,2.539022271516593765e+00
6.380382537841796875e+00,2.538102571738072744e+00
6.382380962371826172e+00,2.539978926179280894e+00
6.384381771087646484e+00,2.543534939710490494e+00
6.386380434036254883e+00,2.544841473679718025e+00
6.388381004333496094e+00,2.547014063240774284e+00
6.390380620956420898e+00,2.550518816771366382e+00
6.392381906509399414e+00,2.552352851909739151e+00
6.394380569458007812e+00,2.553568786808107838e+00
6.396380424499511719e+00,2.557724423137238468e+00
6.398379087448120117e+00,2.558538026635411633e+00
6.400379657745361328e+00,2.561271495970665946e+00
6.402379512786865234e+00,2.564172454377705357e+00
6.404379129409790039e+00,2.566543527429524296e+00
6.406379222869873047e+00,2.570213385845826259e+00
6.408379554748535156e+00,2.573493429838827673e+00
6.410378217697143555e+00,2.575610587073634328e+00
6.412378549575805664e+00,2.581678340635102042e+00
6.414378166198730469e+00,2.583829472521480763e+00
6.416378021240234375e+00,2.586189816735961156e+00
6.418377399444580078e+00,2.589338134448305961e+00
6.420377731323242188e+00,2.590768646093445593e+00
6.422376871109008789e+00,2.594951700562441399e+00
6.424376726150512695e+00,2.598744940608136655e+00
6.426529407501220703e+00,2.601841402273345150e+00
6.428484916687011719e+00,2.606627655819374834e+00
6.430394172668457031e+00,2.556120461955125656e+00
6.432379484176635742e+00,2.595774840804915495e+00
6.434374809265136719e+00,2.598177504322231268e+00
6.436377286911010742e+00,2.604214263464720513e+00
6.438374042510986328e+00,2.606155586976478755e+00
6.440376043319702148e+00,2.613568021484377724e+00
6.442373514175415039e+00,2.614106847537380318e+00
6.444374322891235352e+00,2.620635941104405120e+00
6.446373224258422852e+00,2.623616769744964827e+00
6.448374509811401367e+00,2.627119735136000500e+00
6.450373172760009766e+00,2.629576042840009009e+00
6.452373743057250977e+00,2.633633927540055097e+00
6.454372882843017578e+00,2.635422663142998445e+00
6.456377983093261719e+00,2.640885429487875857e+00
6.458375692367553711e+00,2.642838077883491454e+00
6.460376262664794922e+00,2.646194415830900315e+00
6.462375402450561523e+00,2.650237399367976199e+00
6.464374542236328125e+00,2.652016002180099807e+00
6.466374874114990234e+00,2.653883415923525835e+00
6.468374967575073242e+00,2.656193096183907532e+00
6.470374584197998047e+00,2.655814010597945529e+00
6.472374439239501953e+00,2.658877093658100765e+00
6.474375724792480469e+00,2.661256511361183019e+00
6.476374149322509766e+00,2.660925109496725671e+00
6.478374719619750977e+00,2.664591987680433594e+00
6.480374097824096680e+00,2.663488109527600844e+00
6.482378959655761719e+00,2.663187106035602714e+00
6.484373807907104492e+00,2.664392312096632853e+00
6.486373186111450195e+00,2.664309461630518516e+00
6.488374710083007812e+00,2.664947231405643269e+00
6.490372180938720703e+00,2.666052301651513634e+00
6.492372989654541016e+00,2.664615233494667113e+00
6.494372129440307617e+00,2.666137536303703204e+00
6.496373414993286133e+00,2.665415723969426498e+00
6.498371839523315430e+00,2.662007529974881326e+00
6.500372648239135742e+00,2.662776429984143878e+00
6.502371788024902344e+00,2.661522944155090276e+00
6.504372358322143555e+00,2.659502346456330546e+00
6.506371259689331055e+00,2.658107597602319405e+00
6.508373022079467773e+00,2.656283695254766375e+00
6.510370492935180664e+00,2.654275614532901617e+00
6.512370824813842773e+00,2.654644567328043880e+00
6.514370918273925781e+00,2.651498037755255499e+00
6.516370773315429688e+00,2.647776919338336032e+00
6.518370389938354492e+00,2.645625787451957311e+00
6.520371198654174805e+00,2.642069773920747711e+00
6.522370338439941406e+00,2.640948610418869524e+00
6.524370670318603516e+00,2.639822082498321620e+00
6.526369810104370117e+00,2.634508327783146697e+00
6.528370857238769531e+00,2.634857611043168291e+00
6.530369758605957031e+00,2.631134704486692399e+00
6.532368898391723633e+00,2.626463487918792694e+00
6.534368753433227539e+00,2.624991849063855298e+00
6.536369562149047852e+00,2.621733262745530979e+00
6.538368701934814453e+00,2.618661835034112428e+00
6.540368795394897461e+00,2.618110492004214862e+00
6.542367696762084961e+00,2.611744119136824693e+00
6.544368982315063477e+00,2.611509872854933079e+00
6.546367883682250977e+00,2.607940746300309254e+00
6.548369884490966797e+00,2.603494239270000232e+00
6.550406217575073242e+00,2.599863123877420801e+00
6.552428245544433594e+00,2.569884964213962952e+00
6.554392814636230469e+00,2.556289143119948370e+00
6.556368350982666016e+00,2.572122522845568859e+00
6.558367729187011719e+00,2.570382663057167782e+00
6.560368061065673828e+00,2.569608994675754765e+00
6.562367916107177734e+00,2.568293520008745112e+00
6.564368009567260742e+00,2.566110201610350749e+00
6.566367149353027344e+00,2.563539452974731070e+00
6.568368911743164062e+00,2.564043708329642790e+00
6.570365667343139648e+00,2.558802671289762465e+00
6.572365999221801758e+00,2.560225434330157590e+00
6.574366092681884766e+00,2.559970922466626497e+00
6.576373577117919922e+00,2.558195299887096930e+00
6.578366994857788086e+00,2.556969828244427312e+00
6.580366373062133789e+00,2.554351991933821786e+00
6.582365989685058594e+00,2.551909393299745865e+00
6.584366321563720703e+00,2.552349871677145110e+00
6.586365461349487305e+00,2.550545638864712750e+00
6.588366270065307617e+00,2.550547427004269174e+00
6.590364933013916016e+00,2.549702233040599175e+00
6.592365503311157227e+00,2.548311060465700884e+00
6.594364166259765625e+00,2.549158042568927307e+00
6.596364259719848633e+00,2.549018567683526193e+00
6.598364114761352539e+00,2.546879356727523636e+00
6.600363492965698242e+00,2.547172611614777260e+00
6.602363348007202148e+00,2.546181386253998813e+00
6.604364395141601562e+00,2.545981114623679264e+00
6.606364011764526367e+00,2.545942967646475541e+00
6.608364343643188477e+00,2.545097177636286734e+00
6.610363006591796875e+00,2.544784849260431248e+00
6.612363338470458984e+00,2.547101086032520278e+00
6.614362955093383789e+00,2.545898860204083736e+00
6.616362810134887695e+00,2.544309204138422320e+00
6.618362188339233398e+00,2.544421856930477066e+00
6.620362758636474609e+00,2.543081348309677470e+00
6.622362136840820312e+00,2.543632691339575036e+00
6.624361753463745117e+00,2.544959490890442044e+00
6.626361608505249023e+00,2.544277017626406678e+00
6.628362655639648438e+00,2.544364636464671481e+00
6.630361318588256836e+00,2.543754284829411905e+00
6.632361650466918945e+00,2.543068235286263690e+00
6.634360790252685547e+00,2.542591994117735954e+00
6.636361122131347656e+00,2.542558615512682696e+00
6.638360500335693359e+00,2.542605107141149734e+00
6.640361309051513672e+00,2.543602292967115819e+00
6.642359972000122070e+00,2.541302745497553861e+00
6.644359588623046875e+00,2.543672626456335184e+00
6.646360397338867188e+00,2.543571894594656602e+00
6.648360490798950195e+00,2.541954820389130010e+00
6.650359630584716797e+00,2.540726368513866351e+00
6.652359962463378906e+00,2.541755144805329270e+00
6.654359817504882812e+00,2.540902798283433572e+00
6.656360387802124023e+00,2.543219035055522159e+00
6.658359050750732422e+00,2.542769019933821983e+00
6.660358905792236328e+00,2.543481891570316566e+00
6.662359237670898438e+00,2.544744318097152291e+00
6.664359092712402344e+00,2.543960516924919535e+00
6.666359186172485352e+00,2.542791669701536694e+00
6.668358802795410156e+00,2.543892567621775402e+00
6.670357704162597656e+00,2.541583483407912514e+00
6.672358036041259766e+00,2.543722694363915071e+00
6.674357891082763672e+00,2.544728820887663279e+00
6.676358699798583984e+00,2.544834321121492327e+00
6.678358078002929688e+00,2.546397155093807374e+00
6.680357694625854492e+00,2.546153968114133637e+00
6.682356834411621094e+00,2.545350497406780210e+00
6.684357643127441406e+00,2.545476859268767544e+00
6.686356544494628906e+00,2.546371525093498622e+00
6.688357114791870117e+00,2.546430533698860632e+00
