time_s,voltage_v
1.952409744262695312e-03,2.559565610833836935e+00
3.938198089599609375e-03,2.553422159364481026e+00
5.933523178100585938e-03,2.552954858893735413e+00
7.929086685180664062e-03,2.550300663745482588e+00
9.931325912475585938e-03,2.549915617694332504e+00
1.192855834960937500e-02,2.548024362090154149e+00
1.392960548400878906e-02,2.546633189515255413e+00
1.592803001403808594e-02,2.545583551595634209e+00
1.793074607849121094e-02,2.543245261102349719e+00
1.992726325988769531e-02,2.543047969704624212e+00
2.192807197570800781e-02,2.540699546420519983e+00
2.392792701721191406e-02,2.539031212214375888e+00
2.593064308166503906e-02,2.538895909654606431e+00
2.792787551879882812e-02,2.536906902421343535e+00
2.992916107177734375e-02,2.535310093797456421e+00
3.192830085754394531e-02,2.534429137042657931e+00
3.392839431762695312e-02,2.533800904011834110e+00
3.592753410339355469e-02,2.532292906319249415e+00
3.792858123779296875e-02,2.531979981896875120e+00
3.992724418640136719e-02,2.531460825378993196e+00
4.192900657653808594e-02,2.529408637214736633e+00
4.392886161804199219e-02,2.528261843712549695e+00
4.593205451965332031e-02,2.527153197187566480e+00
4.792571067810058594e-02,2.526234093455564267e+00
4.992866516113281250e-02,2.522366943641536796e+00
5.192780494689941406e-02,2.522985639928059687e+00
5.392861366271972656e-02,2.522229256895692107e+00
5.592751502990722656e-02,2.521304788745020620e+00
5.792832374572753906e-02,2.519963088031183407e+00
5.992698669433593750e-02,2.519175114533318993e+00
6.193065643310546875e-02,2.518533768479081392e+00
6.392765045166015625e-02,2.517057361251993530e+00
6.592941284179687500e-02,2.516870202645087762e+00
6.792688369750976562e-02,2.515313329137960352e+00
6.992888450622558594e-02,2.515580357978386417e+00
7.194042205810546875e-02,2.514815034248236714e+00
7.393550872802734375e-02,2.512134017006637521e+00
7.592988014221191406e-02,2.513138951437348112e+00
7.792997360229492188e-02,2.511781157467503078e+00
7.992887496948242188e-02,2.511611284209642747e+00
8.194494247436523438e-02,2.511583270023258763e+00
8.393859863281250000e-02,2.510202230239180210e+00
8.594202995300292969e-02,2.510784567688055802e+00
8.794283866882324219e-02,2.509141863482220458e+00
8.994674682617187500e-02,2.509319485344825296e+00
9.194111824035644531e-02,2.509882153258580217e+00
9.394168853759765625e-02,2.509025038364534055e+00
9.594082832336425781e-02,2.509400547671383208e+00
9.794163703918457031e-02,2.508222163703699437e+00
9.994721412658691406e-02,2.508548797196006319e+00
1.019456386566162109e-01,2.506349385541604136e+00
1.039414405822753906e-01,2.507904470909174677e+00
1.059429645538330078e-01,2.507376969740029438e+00
1.079397201538085938e-01,2.507578433463386602e+00
1.099417209625244141e-01,2.508656085569391792e+00
1.119403839111328125e-01,2.508533896033036115e+00
1.139409542083740234e-01,2.510314883031234956e+00
1.159400939941406250e-01,2.510041893725620810e+00
1.179463863372802734e-01,2.510633767918797332e+00
1.199436187744140625e-01,2.507224977877733352e+00
1.219410896301269531e-01,2.509190143250243921e+00
1.239399909973144531e-01,2.510223091867338496e+00
1.259419918060302734e-01,2.510178388378427883e+00
1.279463768005371094e-01,2.509328426042607418e+00
1.300098896026611328e-01,2.510105074656614477e+00
1.319766044616699219e-01,2.464235718755211746e+00
1.340677738189697266e-01,2.451505953253025005e+00
1.360330581665039062e-01,2.441521578016469185e+00
1.379857063293457031e-01,2.425317457356150008e+00
1.399669647216796875e-01,2.444200807118511953e+00
1.419434547424316406e-01,2.459442908697475172e+00
1.439425945281982422e-01,2.463779147121804680e+00
1.459422111511230469e-01,2.467589672516545374e+00
1.479411125183105469e-01,2.470168169756909560e+00
1.499409675598144531e-01,2.474791106556785802e+00
1.519405841827392578e-01,2.477852997523903422e+00
1.539421081542968750e-01,2.482132611528946153e+00
1.559412479400634766e-01,2.485242782264087680e+00
1.579411029815673828e-01,2.487039862518294342e+00
1.599409580230712891e-01,2.490774093958627589e+00
1.619415283203125000e-01,2.493140398638296062e+00
1.639411449432373047e-01,2.497818171717902658e+00
1.659419536590576172e-01,2.499276697549426274e+00
1.679406166076660156e-01,2.502149641770081701e+00
1.699402332305908203e-01,2.506805957175011201e+00
1.719410419464111328e-01,2.507155836481551603e+00
1.739413738250732422e-01,2.510853709084237551e+00
1.759402751922607422e-01,2.513773144933360015e+00
1.779410839080810547e-01,2.516714634503678827e+00
1.799416542053222656e-01,2.520172896405803886e+00
1.819407939910888672e-01,2.522783580158183714e+00
1.839396953582763672e-01,2.525412145306127787e+00
1.859424114227294922e-01,2.526652518111767609e+00
1.879415512084960938e-01,2.528914514650644652e+00
1.899416446685791016e-01,2.529609504891574989e+00
1.919400691986083984e-01,2.532291118179692990e+00
1.939423084259033203e-01,2.534623448207789398e+00
1.959397792816162109e-01,2.536821071722635157e+00
1.979420185089111328e-01,2.538829748491018723e+00
1.999409198760986328e-01,2.540532057348734885e+00
2.019422054290771484e-01,2.541824286201511018e+00
2.039427757263183594e-01,2.543219631102040967e+00
2.059445381164550781e-01,2.516427936128132092e+00
2.079403400421142578e-01,2.513269485624967103e+00
2.099409103393554688e-01,2.522244158058662311e+00
2.119398117065429688e-01,2.525766196938299846e+00
2.139408588409423828e-01,2.528531256739050992e+00
2.159383296966552734e-01,2.530417147924560073e+00
2.179524898529052734e-01,2.533642355637831134e+00
2.199485301971435547e-01,2.534159724016156634e+00
2.219440937042236328e-01,2.535620037987236675e+00
2.239413261413574219e-01,2.537494008242369592e+00
2.259421348571777344e-01,2.540196483158645879e+00
2.279393672943115234e-01,2.541795675968608226e+00
2.299411296844482422e-01,2.542913859237892371e+00
2.326891422271728516e-01,2.545909589041422283e+00
2.346222400665283203e-01,2.521391215490247806e+00
2.368495464324951172e-01,2.533282343540470993e+00
2.388463020324707031e-01,2.520881595716666812e+00
2.408449649810791016e-01,2.530899945604794699e+00
2.428443431854248047e-01,2.531669441660576059e+00
2.448439598083496094e-01,2.527439299516594406e+00
2.468476295471191406e-01,2.530247274666699742e+00
2.488460540771484375e-01,2.528830472091492698e+00
2.508468627929687500e-01,2.530737224905160065e+00
2.528455257415771484e-01,2.529573146053927690e+00
2.548465728759765625e-01,2.529920641174392859e+00
2.568452358245849609e-01,2.530342046063190242e+00
2.588465213775634766e-01,2.530821863510830827e+00
2.608439922332763672e-01,2.531669441660576059e+00
2.628452777862548828e-01,2.531271878632531003e+00
2.648448944091796875e-01,2.530908886302576821e+00
2.668449878692626953e-01,2.531423274448308280e+00
2.688450813293457031e-01,2.528750005811453594e+00
2.708451747894287109e-01,2.531556788868521313e+00
2.728428840637207031e-01,2.531082931886068810e+00
2.748444080352783203e-01,2.531867925151339183e+00
2.768423557281494141e-01,2.532441321902432652e+00
2.788445949554443359e-01,2.531437579564759677e+00
2.808423042297363281e-01,2.531565133519784627e+00
2.828426361083984375e-01,2.532129589573095974e+00
2.848427295684814453e-01,2.532043162827868787e+00
2.868435382843017578e-01,2.532511655391652017e+00
2.888426780700683594e-01,2.530982796070909036e+00
2.908432483673095703e-01,2.531115118398084451e+00
2.928414344787597656e-01,2.531415525843563774e+00
2.948427200317382812e-01,2.531934086314926891e+00
2.968437671661376953e-01,2.531511489333091891e+00
2.988426685333251953e-01,2.530653778392526920e+00
3.008410930633544922e-01,2.531734410731126150e+00
3.028419017791748047e-01,2.530072036990170137e+00
3.048400878906250000e-01,2.530527416530539586e+00
3.068413734436035156e-01,2.530281845364790616e+00
3.088407516479492188e-01,2.528214159991045040e+00
3.108420372009277344e-01,2.529500428378633092e+00
3.128404617309570312e-01,2.529297176515719503e+00
3.148407936096191406e-01,2.529559436983995102e+00
3.168401718139648438e-01,2.529160681862912430e+00
3.188474178314208984e-01,2.528935376278802938e+00
3.208403587341308594e-01,2.523452940398805300e+00
3.228402137756347656e-01,2.527129355326814153e+00
3.248398303985595703e-01,2.526692453228527757e+00
3.268408775329589844e-01,2.527035179976842461e+00
3.288393020629882812e-01,2.524487081108937492e+00
3.308393955230712891e-01,2.526846233230380268e+00
3.328390121459960938e-01,2.525691691123448823e+00
3.348405361175537109e-01,2.526827755788297214e+00
3.368375301361083984e-01,2.526933256022126262e+00
3.388392925262451172e-01,2.526909414161373935e+00
3.408374786376953125e-01,2.526850405556011925e+00
3.428387641906738281e-01,2.527213993932484914e+00
3.448376655578613281e-01,2.527264061840064802e+00
3.468389511108398438e-01,2.526629868344052898e+00
3.488378524780273438e-01,2.525933686010084944e+00
3.508384227752685547e-01,2.525586190889619775e+00
3.528368473052978516e-01,2.527315321840682305e+00
3.548378944396972656e-01,2.526858750207275239e+00
3.568372726440429688e-01,2.526829543927853639e+00
3.588376045227050781e-01,2.527123394861626071e+00
3.608357906341552734e-01,2.526251974851128512e+00
3.628373146057128906e-01,2.526569071599134464e+00
3.648357391357421875e-01,2.527054849511963130e+00
3.668372631072998047e-01,2.526852193695568349e+00
3.688371181488037109e-01,2.524243894129263754e+00
3.708364963531494141e-01,2.525549832051972476e+00
3.728346824645996094e-01,2.526411119271650296e+00
3.748366832733154297e-01,2.526250186711572088e+00
3.768351078033447266e-01,2.526507082761178413e+00
3.788361549377441406e-01,2.526344958108062588e+00
3.808343410491943359e-01,2.526347938340656629e+00
3.828353881835937500e-01,2.527123394861626071e+00
3.848345279693603516e-01,2.527756396264600358e+00
3.868350982666015625e-01,2.526964846487623095e+00
3.888342380523681641e-01,2.527386251376420478e+00
3.908386230468750000e-01,2.527823749521225682e+00
3.928446769714355469e-01,2.525938454382235410e+00
3.948593139648437500e-01,2.523738446681314418e+00
3.968360424041748047e-01,2.514093221913960008e+00
3.988342285156250000e-01,2.519989910124529775e+00
4.008340835571289062e-01,2.519506516397776341e+00
4.028339385986328125e-01,2.521153392929243342e+00
4.048337936401367188e-01,2.519826593378376334e+00
4.068346023559570312e-01,2.520789804552770352e+00
4.088330268859863281e-01,2.521132531301085056e+00
4.108338356018066406e-01,2.521056237346677609e+00
4.128322601318359375e-01,2.522321048059588566e+00
4.148335456848144531e-01,2.522999348997992275e+00
4.168324470520019531e-01,2.523360553188390032e+00
4.188330173492431641e-01,2.524336877386197830e+00
4.208314418792724609e-01,2.524064484127102492e+00
4.228324890136718750e-01,2.525435987166880114e+00
4.248318672180175781e-01,2.526191774152728886e+00
4.268319606781005859e-01,2.526454034621004485e+00
4.288311004638671875e-01,2.525726857868058506e+00
4.308326244354248047e-01,2.527005377650902052e+00
4.328300952911376953e-01,2.528189722083773905e+00
4.348320960998535156e-01,2.528639737205474081e+00
4.368298053741455078e-01,2.528769079300055456e+00
4.388310909271240234e-01,2.529330555120772761e+00
4.408299922943115234e-01,2.529285851631862148e+00
4.428308010101318359e-01,2.530035082106004030e+00
4.448294639587402344e-01,2.530351582807491173e+00
4.468302726745605469e-01,2.530727688160859135e+00
4.488294124603271484e-01,2.530411187459371991e+00
4.508306980133056641e-01,2.530725303974783902e+00
4.528281688690185547e-01,2.531165782352183147e+00
4.548296928405761719e-01,2.531634870962485184e+00
4.568285942077636719e-01,2.531389299796736214e+00
4.588291645050048828e-01,2.532155815619923533e+00
4.608294963836669922e-01,2.532224957016105282e+00
4.628293514251708984e-01,2.530575100252044241e+00
4.648270606994628906e-01,2.531672421893170100e+00
4.668312072753906250e-01,2.532512251438170825e+00
4.688274860382080078e-01,2.531816665150721679e+00
4.708294868469238281e-01,2.533086840282301910e+00
4.728271961212158203e-01,2.532317344226520550e+00
4.748291969299316406e-01,2.532028261664898583e+00
4.768266677856445312e-01,2.531774941894405107e+00
4.788286685943603516e-01,2.532224360969586474e+00
4.808263778686523438e-01,2.532680336556474732e+00
4.828279018402099609e-01,2.533315722145524251e+00
4.848268032073974609e-01,2.532415095855605092e+00
4.868276119232177734e-01,2.532831732372252009e+00
4.888255596160888672e-01,2.530881468162711645e+00
4.908266067504882812e-01,2.530710402811813697e+00
4.928257465362548828e-01,2.531194988631604748e+00
4.948275089263916016e-01,2.532143894689547370e+00
4.968261718750000000e-01,2.530188862107856540e+00
4.988262653350830078e-01,2.531317774214479233e+00
5.008258819580078125e-01,2.531760636777953710e+00
5.028266906738281250e-01,2.531421486308751856e+00
5.048248767852783203e-01,2.531331483284411821e+00
5.068259239196777344e-01,2.531653944451087046e+00
5.088248252868652344e-01,2.531632486776409952e+00
5.108253955841064453e-01,2.530513707460606998e+00
5.128242969512939453e-01,2.530907694209539205e+00
5.148248672485351562e-01,2.532471124228373061e+00
5.168240070343017578e-01,2.532678548416918307e+00
5.188302993774414062e-01,2.533476058659083652e+00
5.208261013031005859e-01,2.528636160926361232e+00
5.228240489959716797e-01,2.532813850976687764e+00
5.248243808746337891e-01,2.533054653770286269e+00
5.268280506134033203e-01,2.535370890542374855e+00
5.288248062133789062e-01,2.533762160988111578e+00
5.308234691619873047e-01,2.535937134735242626e+00
5.328228473663330078e-01,2.536088530551019904e+00
5.348241329193115234e-01,2.537821237781195283e+00
5.368225574493408203e-01,2.539676134547726338e+00
5.388228893280029297e-01,2.540616695954405646e+00
5.408217906951904297e-01,2.542008464575822746e+00
5.428233146667480469e-01,2.543828194597744119e+00
5.448217391967773438e-01,2.545585339735190633e+00
5.468230247497558594e-01,2.546713655795294518e+00
5.488221645355224609e-01,2.548730677214941842e+00
5.508224964141845703e-01,2.549621170714041263e+00
5.528204441070556641e-01,2.551123803987956684e+00
5.548262596130371094e-01,2.553686207972313049e+00
5.568208694458007812e-01,2.554875916823854176e+00
5.588219165802001953e-01,2.556734985916016889e+00
5.608203411102294922e-01,2.557981915233363601e+00
5.628216266632080078e-01,2.559410042692428000e+00
5.648202896118164062e-01,2.562622733428804089e+00
5.668213367462158203e-01,2.563880987630008157e+00
5.688195228576660156e-01,2.566409416962792456e+00
5.708205699920654297e-01,2.567510314883031164e+00
5.728187561035156250e-01,2.569961258168370399e+00
5.748200416564941406e-01,2.572407433081559169e+00
5.768191814422607422e-01,2.573414751698344993e+00
5.788202285766601562e-01,2.574847051483041049e+00
5.808188915252685547e-01,2.576951691740952732e+00
5.828197002410888672e-01,2.578544328039208633e+00
5.848188400268554688e-01,2.581043551092571331e+00
5.868196487426757812e-01,2.582428763202281541e+00
5.888187885284423828e-01,2.583576152750987287e+00
5.908195972442626953e-01,2.585070441373639394e+00
5.928184986114501953e-01,2.586175511619509759e+00
5.948188304901123047e-01,2.588044713502492211e+00
5.968177318572998047e-01,2.588901232350019566e+00
5.988183021545410156e-01,2.590291808878399049e+00
6.008169651031494141e-01,2.591750930756441473e+00
6.028182506561279297e-01,2.592875074490913700e+00
6.048171520233154297e-01,2.593526553335971041e+00
6.068177223205566406e-01,2.593801926827660420e+00
6.088168621063232422e-01,2.595367741032569509e+00
6.108179092407226562e-01,2.594448637300567295e+00
6.128160953521728516e-01,2.577043482904849192e+00
6.148173809051513672e-01,2.590614866091593083e+00
6.168153285980224609e-01,2.591822456338698455e+00
6.188170909881591797e-01,2.592239092855345373e+00
6.208155155181884766e-01,2.592782687280498433e+00
6.228163242340087891e-01,2.592584203789735309e+00
6.248152256011962891e-01,2.592830967048521895e+00
6.268157958984375000e-01,2.592529367510004956e+00
6.288154125213623047e-01,2.592955540770952805e+00
6.308162212371826172e-01,2.591935705177272009e+00
6.328139305114746094e-01,2.579185674093446234e+00
6.348161697387695312e-01,2.587724636521892219e+00
6.368141174316406250e-01,2.588385652111250490e+00
6.388151645660400391e-01,2.588118623270824425e+00
6.408135890960693359e-01,2.587902258384497056e+00
6.428143978118896484e-01,2.587645362334890731e+00
6.448132991790771484e-01,2.586914609302831902e+00
6.468145847320556641e-01,2.586418698599183497e+00
6.488132476806640625e-01,2.585444162540932123e+00
6.508147716522216797e-01,2.585407207656766015e+00
6.528129577636718750e-01,2.585245679050168999e+00
6.548144817352294922e-01,2.567951389306949217e+00
6.568124294281005859e-01,2.578900763857455924e+00
6.588137149810791016e-01,2.578223058965571024e+00
6.608130931854248047e-01,2.577742645471411187e+00
6.628136634826660156e-01,2.578180143616216835e+00
6.648116111755371094e-01,2.577720591750215284e+00
6.668128967285156250e-01,2.577860066635616398e+00
6.688127517700195312e-01,2.577253887325988480e+00
6.708128452301025391e-01,2.575952121728911415e+00
6.728112697601318359e-01,2.576035568241544560e+00
6.748125553131103516e-01,2.563653893906342240e+00
6.768116950988769531e-01,2.569172092577468369e+00
6.788122653961181641e-01,2.569428392580555887e+00
6.808109283447265625e-01,2.568819233038333927e+00
6.828122138977050781e-01,2.567877479538617003e+00
6.848106384277343750e-01,2.566870756968349987e+00
6.868116855621337891e-01,2.566682406268406602e+00
6.888101100921630859e-01,2.565483756719083352e+00
6.908109188079833984e-01,2.563841648559766817e+00
6.928093433380126953e-01,2.563585944603198108e+00
6.948106288909912109e-01,2.561783499930322172e+00
6.968088150024414062e-01,2.545677130899087093e+00
6.988105773925781250e-01,2.555215067293056030e+00
7.008099555969238281e-01,2.554011053325063507e+00
7.028100490570068359e-01,2.554747766822310417e+00
7.048082351684570312e-01,2.554100460302884734e+00
7.068095207214355469e-01,2.553882903323519749e+00
7.088091373443603516e-01,2.552977508661450123e+00
7.108094692230224609e-01,2.552253908187616993e+00
7.128076553344726562e-01,2.551480239806203976e+00
7.148091793060302734e-01,2.549653357226056904e+00
7.168083190917968750e-01,2.541049425727060385e+00
7.188105583190917969e-01,2.545145457404310196e+00
7.208085060119628906e-01,2.541740243642359065e+00
7.228167057037353516e-01,2.543690507851899429e+00
7.248091697692871094e-01,2.542654579002210813e+00
7.268073558807373047e-01,2.543583815525032765e+00
7.288079261779785156e-01,2.542276685509286427e+00
7.308080196380615234e-01,2.542360132021919572e+00
7.328071594238281250e-01,2.541367118521585144e+00
7.348074913024902344e-01,2.541461293871556837e+00
7.368071079254150391e-01,2.540791933630935251e+00
7.388076782226562500e-01,2.525602284145627596e+00
7.408053874969482422e-01,2.535937134735242626e+00
7.428071498870849609e-01,2.536193434738330144e+00
7.448058128356933594e-01,2.536317412414242245e+00
7.468059062957763672e-01,2.536511723579373712e+00
7.488062381744384766e-01,2.536034290317808360e+00
7.508058547973632812e-01,2.535494272171768149e+00
7.528047561645507812e-01,2.535442416124631837e+00
7.548062801361083984e-01,2.536608879161939445e+00
7.568075656890869141e-01,2.536067668922861618e+00
7.588052749633789062e-01,2.529576722333040539e+00
7.608046531677246094e-01,2.530660930950752618e+00
7.628059387207031250e-01,2.529662553031748917e+00
7.648038864135742188e-01,2.530977431652239762e+00
7.668054103851318359e-01,2.531808320499458365e+00
7.688038349151611328e-01,2.532176677248081820e+00
7.708048820495605469e-01,2.531232539562289663e+00
7.728028297424316406e-01,2.531507317007460234e+00
7.748043537139892578e-01,2.532721463766272496e+00
7.768025398254394531e-01,2.532014552594965995e+00
7.788050174713134766e-01,2.532263700039827814e+00
7.808020114898681641e-01,2.519498171746513027e+00
7.828044891357421875e-01,2.527212801839447298e+00
7.848019599914550781e-01,2.529115382327483008e+00
7.868034839630126953e-01,2.528962794418668114e+00
7.888031005859375000e-01,2.528924051394945582e+00
7.908034324645996094e-01,2.528770271393093072e+00
7.928011417388916016e-01,2.528696361624760858e+00
7.948026657104492188e-01,2.529036704187000328e+00
7.968013286590576172e-01,2.529161873955950046e+00
7.988023757934570312e-01,2.529595795821642401e+00
8.008005619049072266e-01,2.527129951373332961e+00
8.028025627136230469e-01,2.522841396670508107e+00
8.048009872436523438e-01,2.524366679712138239e+00
8.068015575408935547e-01,2.524330320874490940e+00
8.088006973266601562e-01,2.525393071817525925e+00
8.108012676239013672e-01,2.525583210657025734e+00
8.127996921539306641e-01,2.525511685074768753e+00
8.148007392883300781e-01,2.526696625554159414e+00
8.167991638183593750e-01,2.525979581592033174e+00
8.188009262084960938e-01,2.527242604165387707e+00
8.207995891571044922e-01,2.527416053702360887e+00
8.228139877319335938e-01,2.524077001103997464e+00
8.248367309570312500e-01,2.516912521947923143e+00
8.268122673034667969e-01,2.486180959484691755e+00
8.288805484771728516e-01,2.472752627462461827e+00
8.310647010803222656e-01,2.470207508827150900e+00
8.330602645874023438e-01,2.478273210319663189e+00
8.358085155487060547e-01,2.469979819056966175e+00
8.378584384918212891e-01,2.509433330229917658e+00
8.398604393005371094e-01,2.502449453169042215e+00
8.418245315551757812e-01,2.470767792554830589e+00
8.437907695770263672e-01,2.511359156532186887e+00
8.458085060119628906e-01,2.518753709644521610e+00
8.477971553802490234e-01,2.525925341358821630e+00
8.498127460479736328e-01,2.531594339799206228e+00
8.517918586730957031e-01,2.537092272888692879e+00
8.538072109222412109e-01,2.542819087841401871e+00
8.557949066162109375e-01,2.549035853032571630e+00
8.578059673309326172e-01,2.554496235191373366e+00
8.597948551177978516e-01,2.560488290844951997e+00
8.618013858795166016e-01,2.563223548319762735e+00
8.637940883636474609e-01,2.568144508379043067e+00
8.658025264739990234e-01,2.573476144489782236e+00
8.677937984466552734e-01,2.577933976403948613e+00
8.698067665100097656e-01,2.581910798777437233e+00
8.717970848083496094e-01,2.584915469278749267e+00
8.738055229187011719e-01,2.586967657443005830e+00
8.757970333099365234e-01,2.591085146794932736e+00
8.778047561645507812e-01,2.594818186142228367e+00
8.797960281372070312e-01,2.597859215481187700e+00
8.818044662475585938e-01,2.599918556203669961e+00
8.837954998016357422e-01,2.602895212518598012e+00
8.858034610748291016e-01,2.604978395101832600e+00
8.877952098846435547e-01,2.607594443272881701e+00
8.898038864135742188e-01,2.608580900261509239e+00
8.917953968048095703e-01,2.610627127960578164e+00
8.938038349151611328e-01,2.612207247281938649e+00
8.957948684692382812e-01,2.612803293800746829e+00
8.978037834167480469e-01,2.614129497305095029e+00
8.997938632965087891e-01,2.614553286379967645e+00
9.018025398254394531e-01,2.615004493594705437e+00
9.037930965423583984e-01,2.615235759644003011e+00
9.058020114898681641e-01,2.615376426622441741e+00
9.077932834625244141e-01,2.615620209648634287e+00
9.098050594329833984e-01,2.615595771741363151e+00
9.117934703826904297e-01,2.614198638701276778e+00
9.138021469116210938e-01,2.614122940793388139e+00
9.157938957214355469e-01,2.613520337762873069e+00
9.178001880645751953e-01,2.610399438190393440e+00
9.197843074798583984e-01,2.610274864467962530e+00
9.218285083770751953e-01,2.606651497680127161e+00
9.237794876098632812e-01,2.606098366510673170e+00
9.257881641387939453e-01,2.603611064387686636e+00
9.277784824371337891e-01,2.602897596704673244e+00
9.297893047332763672e-01,2.600224924114337366e+00
9.317784309387207031e-01,2.598329496184527354e+00
9.337882995605468750e-01,2.595860075457105065e+00
9.357790946960449219e-01,2.595045875912413091e+00
9.377853870391845703e-01,2.592661689837180372e+00
9.397752285003662109e-01,2.590402077484378562e+00
9.417741298675537109e-01,2.588470886763440060e+00
9.437808990478515625e-01,2.586878250465184603e+00
9.457862377166748047e-01,2.582429955295319157e+00
9.477775096893310547e-01,2.582298825061181358e+00
9.497852325439453125e-01,2.580433199457311755e+00
9.517772197723388672e-01,2.578005501986205594e+00
9.537851810455322266e-01,2.575899073588737487e+00
9.557774066925048828e-01,2.573762246818810162e+00
9.577851295471191406e-01,2.571847745400398288e+00
9.597766399383544922e-01,2.569060035831932431e+00
9.617843627929687500e-01,2.567551442092828928e+00
9.637756347656250000e-01,2.565999933004371236e+00
9.657747745513916016e-01,2.563706942046516168e+00
9.677746295928955078e-01,2.562617965056653624e+00
9.697837829589843750e-01,2.560206360841555728e+00
9.717741012573242188e-01,2.557171291967784477e+00
9.737749099731445312e-01,2.555787271951111883e+00
9.757752418518066406e-01,2.554269737514226257e+00
9.777741432189941406e-01,2.552547163074870618e+00
9.797751903533935547e-01,2.551058834917406593e+00
9.817743301391601562e-01,2.548770016285183182e+00
9.837737083435058594e-01,2.546949094170224193e+00
9.857733249664306641e-01,2.545411890198217453e+00
9.877736568450927734e-01,2.543639247851281926e+00
9.897737503051757812e-01,2.538203899646270134e+00
9.917733669281005859e-01,2.536611263348014678e+00
9.937732219696044922e-01,2.535532419148971872e+00
9.957742691040039062e-01,2.534042898898470231e+00
9.977731704711914062e-01,2.532421056320793173e+00
9.997735023498535156e-01,2.531633082822928760e+00
1.001772165298461914e+00,2.530757490486799544e+00
1.003772974014282227e+00,2.529910508383573120e+00
1.005771636962890625e+00,2.528353634876446154e+00
1.007772684097290039e+00,2.526404562759943406e+00
1.009773492813110352e+00,2.525553408331085325e+00
1.011772871017456055e+00,2.524414363433642894e+00
1.013771295547485352e+00,2.523898783194873818e+00
1.015771627426147461e+00,2.522903981554982966e+00
1.017771005630493164e+00,2.521465721305098828e+00
1.019771337509155273e+00,2.521224918511500324e+00
1.021770954132080078e+00,2.521241011767508144e+00
1.023770809173583984e+00,2.520829739669530500e+00
1.025769472122192383e+00,2.520516219200637398e+00
1.027769804000854492e+00,2.520435156874079485e+00
1.029769659042358398e+00,2.520228924778571855e+00
1.031769752502441406e+00,2.517879309401430010e+00
1.033770561218261719e+00,2.519004645228939854e+00
1.035769462585449219e+00,2.519972624775484338e+00
1.037769079208374023e+00,2.519409360815210608e+00
1.039770126342773438e+00,2.518932523600164064e+00
1.041768550872802734e+00,2.518942656390983803e+00
1.043769598007202148e+00,2.519159021277311172e+00
1.045768737792968750e+00,2.518794836854319374e+00
1.047768115997314453e+00,2.518924178948900749e+00
1.049768686294555664e+00,2.519514265002520848e+00
1.051768302917480469e+00,2.517837586145113438e+00
1.053767442703247070e+00,2.519039811973549536e+00
1.055768251419067383e+00,2.519792022680285459e+00
1.057767629623413086e+00,2.519926133147017300e+00
1.059767484664916992e+00,2.519608440352492540e+00
1.061766624450683594e+00,2.519707980121133506e+00
1.063767671585083008e+00,2.520199718499150254e+00
1.065766572952270508e+00,2.520934047810321932e+00
1.067767620086669922e+00,2.521190943859928257e+00
1.069767236709594727e+00,2.521087231765655634e+00
1.071766853332519531e+00,2.520472111758245592e+00
1.073765993118286133e+00,2.522143426196983729e+00
1.075766324996948242e+00,2.522074284800801980e+00
1.077765226364135742e+00,2.522695365273400103e+00
1.079767942428588867e+00,2.523202004814387056e+00
1.081765413284301758e+00,2.523043456440384080e+00
1.083765983581542969e+00,2.523434462956722246e+00
1.085765123367309570e+00,2.523600163888950920e+00
1.087765455245971680e+00,2.524293365990324833e+00
1.089765071868896484e+00,2.525343003909946038e+00
1.091764450073242188e+00,2.524446549945658536e+00
1.093764305114746094e+00,2.525195184373281609e+00
1.095765113830566406e+00,2.525679174146553851e+00
1.097763776779174805e+00,2.524466815527298014e+00
1.099765300750732422e+00,2.526493969737764633e+00
1.101764917373657227e+00,2.526981535790149724e+00
1.103765487670898438e+00,2.527765933008901289e+00
1.105763673782348633e+00,2.526747289508258110e+00
1.107763767242431641e+00,2.527882162080068884e+00
1.109764099121093750e+00,2.529436055354601809e+00
1.111763477325439453e+00,2.527932826034167579e+00
1.113762617111206055e+00,2.530025545361703099e+00
1.115762948989868164e+00,2.530257407457519481e+00
1.117762565612792969e+00,2.530469600018215193e+00
1.119766235351562500e+00,2.529666129310861766e+00
1.121762514114379883e+00,2.527373138353006699e+00
1.123763084411621094e+00,2.530563775368186885e+00
1.125762224197387695e+00,2.529275122794523600e+00
1.127762317657470703e+00,2.530614439322285580e+00
1.129762172698974609e+00,2.529750767916532528e+00
1.131762266159057617e+00,2.530347410481859516e+00
1.133761167526245117e+00,2.531321350493592082e+00
1.135762929916381836e+00,2.531974617478205847e+00
1.137760639190673828e+00,2.531873289570008456e+00
1.139760494232177734e+00,2.532728616324498194e+00
1.141760826110839844e+00,2.533135120050325373e+00
1.143761396408081055e+00,2.533819977500435972e+00
1.145760536193847656e+00,2.533607188893221451e+00
1.147760391235351562e+00,2.534171644946532798e+00
1.149760723114013672e+00,2.534137670294960731e+00
1.151760339736938477e+00,2.535061542399113410e+00
1.153759956359863281e+00,2.536072437295012083e+00
1.155760526657104492e+00,2.536514107765448944e+00
1.157759666442871094e+00,2.536967103119743161e+00
1.159759521484375000e+00,2.537148301261460848e+00
1.161758184432983398e+00,2.538608019186022080e+00
1.163758754730224609e+00,2.538426224997785585e+00
1.165758371353149414e+00,2.538283173833271622e+00
1.167759656906127930e+00,2.538802926397672355e+00
1.169759035110473633e+00,2.538773124071731946e+00
1.171759128570556641e+00,2.539195125007048137e+00
1.173759222030639648e+00,2.539555137104408278e+00
1.175758838653564453e+00,2.539744679897389279e+00
1.177757501602172852e+00,2.539789979432818701e+00
1.179758548736572266e+00,2.540002171993514413e+00
1.181757688522338867e+00,2.540064160831470463e+00
1.183757066726684570e+00,2.539962236876754265e+00
1.185756444931030273e+00,2.540760343165438417e+00
1.187757015228271484e+00,2.541204397821950511e+00
1.189757108688354492e+00,2.541187112472905074e+00
1.191757202148437500e+00,2.539853160363812368e+00
1.193756818771362305e+00,2.540263240368752395e+00
1.195757150650024414e+00,2.541143601077032077e+00
1.197755575180053711e+00,2.541307513869704326e+00
1.199756383895874023e+00,2.541242544799154235e+00
1.201755523681640625e+00,2.541657393176244728e+00
1.203755617141723633e+00,2.541728918758501710e+00
1.205754995346069336e+00,2.541579311082280856e+00
1.207755804061889648e+00,2.541965549226468557e+00
1.209755659103393555e+00,2.541476791081045850e+00
1.211755990982055664e+00,2.541455929452887563e+00
1.213754892349243164e+00,2.537516658010084303e+00
1.215755224227905273e+00,2.538982336399833617e+00
1.217754364013671875e+00,2.539334599892449251e+00
1.219766139984130859e+00,2.540497486650644010e+00
1.221756458282470703e+00,2.538989488958059315e+00
1.223755836486816406e+00,2.541364734335509912e+00
1.225754022598266602e+00,2.541462485964594453e+00
1.227754116058349609e+00,2.541515534104768381e+00
1.229754686355590820e+00,2.541539375965520708e+00
1.231754302978515625e+00,2.541023199680232825e+00
1.233752965927124023e+00,2.541682427130034672e+00
1.235753774642944336e+00,2.540657227117684602e+00
1.237753391265869141e+00,2.540504639208869708e+00
1.239753961563110352e+00,2.540321056881076789e+00
1.241753101348876953e+00,2.541135256425768763e+00
1.243752717971801758e+00,2.540759151072400801e+00
1.245751857757568359e+00,2.540909354795140462e+00
1.247752904891967773e+00,2.540470068510778834e+00
1.249752521514892578e+00,2.541170423170378445e+00
1.251752853393554688e+00,2.541048829680541576e+00
1.253751993179321289e+00,2.541499440848760560e+00
1.255752086639404297e+00,2.541587059687025363e+00
1.257751226425170898e+00,2.541555469221528529e+00
1.259752035140991211e+00,2.541771834107855899e+00
1.261752128601074219e+00,2.541660969455357577e+00
1.263751268386840820e+00,2.541036908750165413e+00
1.265750408172607422e+00,2.541488712011422013e+00
1.267751455307006836e+00,2.540536229674366542e+00
1.269750595092773438e+00,2.541441624336436167e+00
1.271750450134277344e+00,2.540440266184838425e+00
1.273750066757202148e+00,2.541018431308082359e+00
1.275750398635864258e+00,2.540238802461481260e+00
1.277750015258789062e+00,2.540306751764625393e+00
1.279750108718872070e+00,2.541193668984611964e+00
1.281749725341796875e+00,2.540261452229195971e+00
1.283750057220458984e+00,2.540282313857354257e+00
1.285751104354858398e+00,2.540204231763390386e+00
1.287749528884887695e+00,2.539626662686665259e+00
1.289749383926391602e+00,2.539899055945760598e+00
1.291749000549316406e+00,2.538718287792001593e+00
1.293748617172241211e+00,2.539758985013840675e+00
1.295749187469482422e+00,2.539975945946686853e+00
1.297748327255249023e+00,2.539426987102864519e+00
1.299749374389648438e+00,2.538889353142899541e+00
1.301747560501098633e+00,2.537625734523026200e+00
1.303748130798339844e+00,2.538170521041216876e+00
1.305747270584106445e+00,2.538992469190653356e+00
1.307747840881347656e+00,2.538634245232849640e+00
1.309752941131591797e+00,2.538755242676167700e+00
1.311747789382934570e+00,2.537176315447844832e+00
1.313747167587280273e+00,2.537488047777181510e+00
1.315747022628784180e+00,2.538252775460812405e+00
1.317746877670288086e+00,2.537967865224822095e+00
1.319750070571899414e+00,2.537584011266709627e+00
1.321746826171875000e+00,2.533668581684658694e+00
1.323747396469116211e+00,2.535338107983840406e+00
1.325746297836303711e+00,2.534561459369833347e+00
1.327745914459228516e+00,2.535927001944422887e+00
1.329746246337890625e+00,2.535828654268819538e+00
1.331746816635131836e+00,2.535746399849224009e+00
1.333745002746582031e+00,2.534703318441309694e+00
1.335746049880981445e+00,2.535234395889567782e+00
1.337744474411010742e+00,2.534694377743527571e+00
1.339745759963989258e+00,2.534514371694847501e+00
1.341744899749755859e+00,2.533130351678174907e+00
1.343744993209838867e+00,2.533858720524158503e+00
1.345744848251342773e+00,2.533070150979775281e+00
1.347745656967163086e+00,2.533744279592547333e+00
1.349744081497192383e+00,2.533741299359953292e+00
1.351744651794433594e+00,2.534520332160035583e+00
1.353743314743041992e+00,2.533015910746563737e+00
1.355743646621704102e+00,2.532916967024441579e+00
1.357743024826049805e+00,2.533660833079914187e+00
1.359794139862060547e+00,2.533486787496422199e+00
1.361806869506835938e+00,2.503223121550455232e+00
1.363753795623779297e+00,2.504524887147532297e+00
1.365743637084960938e+00,2.521336975257036261e+00
1.367743730545043945e+00,2.522802057600266767e+00
1.369743108749389648e+00,2.523473802026963586e+00
1.371743917465209961e+00,2.524491849481087957e+00
1.373742580413818359e+00,2.524878683671794466e+00
1.375741958618164062e+00,2.525701823914268562e+00
1.377741575241088867e+00,2.526759210438634273e+00
1.379765748977661133e+00,2.527193132304326628e+00
1.381868124008178711e+00,2.520230712918128280e+00
1.383833885192871094e+00,2.475384768889518750e+00
1.385946273803710938e+00,2.471623715355839135e+00
1.388007164001464844e+00,2.455162698645913633e+00
1.390017271041870117e+00,2.442852549892967851e+00
1.392971038818359375e+00,2.412271787198994932e+00
1.396708965301513672e+00,2.421194603585553384e+00
1.398725986480712891e+00,2.324937263123662667e+00
1.400820493698120117e+00,2.362974567767926359e+00
1.402780294418334961e+00,2.375130340472500379e+00
1.404751539230346680e+00,2.371892019735815538e+00
1.406753540039062500e+00,2.371619030430201391e+00
1.408792734146118164e+00,2.364306731737462641e+00
1.410772085189819336e+00,2.362641973810431395e+00
1.412814140319824219e+00,2.359594387959765172e+00
1.414840936660766602e+00,2.333771268578919145e+00
1.416794300079345703e+00,2.353222650673705285e+00
1.418784379959106445e+00,2.363698764288278298e+00
1.420782327651977539e+00,2.363329215446617226e+00
1.422831296920776367e+00,2.368022485735712834e+00
1.424780130386352539e+00,2.367622538521592546e+00
1.426784992218017578e+00,2.375593468617614334e+00
1.428786277770996094e+00,2.373292133008495952e+00
1.430795431137084961e+00,2.368897482025323242e+00
1.432784795761108398e+00,2.365286632214383289e+00
1.434781312942504883e+00,2.370783969257351131e+00
1.436772346496582031e+00,2.370841189723156717e+00
1.438778638839721680e+00,2.374460384185359985e+00
1.440769433975219727e+00,2.374463364417954025e+00
1.442828178405761719e+00,2.377991959809298450e+00
1.444816827774047852e+00,2.376532241884737218e+00
1.448966979980468750e+00,2.376751587003658628e+00
1.450949430465698242e+00,2.345333378950760217e+00
1.452866315841674805e+00,2.374102160227556269e+00
1.454778909683227539e+00,2.382765696378433162e+00
1.456773281097412109e+00,2.388159321327128382e+00
1.458776235580444336e+00,2.394011306048787535e+00
1.460770606994628906e+00,2.397758650512534562e+00
1.462771415710449219e+00,2.404283571753927706e+00
1.464761972427368164e+00,2.407216120626463951e+00
1.466835260391235352e+00,2.413254667908509621e+00
1.468835592269897461e+00,2.399351286810790018e+00
1.470794439315795898e+00,2.409867931588641543e+00
1.472835302352905273e+00,2.425170829912523196e+00
1.474878311157226562e+00,2.418697764718265919e+00
1.476839065551757812e+00,2.422638824300626048e+00
1.478785514831542969e+00,2.433169178148410161e+00
1.480769634246826172e+00,2.441610984994290412e+00
1.482760667800903320e+00,2.448643737869708126e+00
1.484756469726562500e+00,2.451306873715743073e+00
1.486779451370239258e+00,2.458484465895231619e+00
1.488933324813842773e+00,2.466713484133897349e+00
1.491039991378784180e+00,2.463475163397212508e+00
1.493943214416503906e+00,2.451249653249937488e+00
1.496036052703857422e+00,2.467679675540885409e+00
1.498921871185302734e+00,2.461651857096178286e+00
1.500969886779785156e+00,2.425676873406991341e+00
1.502927541732788086e+00,2.455012494923173971e+00
1.504830360412597656e+00,2.479630408242989414e+00
1.506760358810424805e+00,2.486912308563269391e+00
1.508748769760131836e+00,2.491056620008542666e+00
1.510797262191772461e+00,2.501311600364637400e+00
1.512754678726196289e+00,2.476958927745691152e+00
1.514785766601562500e+00,2.518396677779755510e+00
1.516751766204833984e+00,2.523509564818092077e+00
1.518832683563232422e+00,2.535401884961352881e+00
1.520771026611328125e+00,2.536773388001130503e+00
1.522756099700927734e+00,2.549360102338803280e+00
1.524842262268066406e+00,2.555406398225593456e+00
1.526775598526000977e+00,2.548538750235885608e+00
1.528731584548950195e+00,2.588681887231098155e+00
1.530730724334716797e+00,2.624247983008382690e+00
1.532727479934692383e+00,2.631951288217459606e+00
1.534727811813354492e+00,2.654423434069566046e+00
1.536726713180541992e+00,2.666955312127508027e+00
1.538731813430786133e+00,2.684419475128588140e+00
1.540726900100708008e+00,2.690103970778461751e+00
1.542726755142211914e+00,2.709414089848290796e+00
1.544725179672241211e+00,2.718910899032461526e+00
1.546729087829589844e+00,2.731793848489981524e+00
1.548725366592407227e+00,2.737948028796676425e+00
1.550727605819702148e+00,2.750271886619554351e+00
1.552726745605468750e+00,2.755943269246014182e+00
1.554726362228393555e+00,2.765652270990881068e+00
1.556725740432739258e+00,2.772089573394009410e+00
1.558726549148559570e+00,2.780694696986043102e+00
1.560724496841430664e+00,2.784102890980588274e+00
1.562725305557250977e+00,2.791595195722007094e+00
1.564724445343017578e+00,2.793409561325259194e+00
1.566726446151733398e+00,2.798461651618677770e+00
1.568727493286132812e+00,2.800309395826983128e+00
1.570727348327636719e+00,2.803487515865268342e+00
1.572726488113403320e+00,2.804069257267625126e+00
1.574726343154907227e+00,2.806804514742435863e+00
1.576726198196411133e+00,2.807107902420509227e+00
1.578727006912231445e+00,2.807598448705488359e+00
1.580725908279418945e+00,2.805058098442327896e+00
1.582725763320922852e+00,2.806253171712538297e+00
1.584725856781005859e+00,2.803790307496822898e+00
1.586726427078247070e+00,2.803233004001737250e+00
1.588723897933959961e+00,2.800718879785404347e+00
1.590725183486938477e+00,2.796880340204279669e+00
1.592723608016967773e+00,2.793158625740840950e+00
1.594724893569946289e+00,2.789383267090709939e+00
1.596723556518554688e+00,2.786330912867893250e+00
1.598725080490112305e+00,2.782430980495331330e+00
1.600724458694458008e+00,2.776741716473307253e+00
1.602725267410278320e+00,2.772016259672196004e+00
1.604723691940307617e+00,2.765484185872576717e+00
1.606724739074707031e+00,2.760991187213800657e+00
1.608724832534790039e+00,2.754553884810672315e+00
1.610723733901977539e+00,2.748833030323151405e+00
1.612722635269165039e+00,2.743345230024484493e+00
1.614723682403564453e+00,2.735955445284300680e+00
1.616722583770751953e+00,2.730946866386755101e+00
1.618722915649414062e+00,2.723864045603757500e+00
1.620722055435180664e+00,2.716493334352175548e+00
1.622724056243896484e+00,2.710170472880658377e+00
1.624721765518188477e+00,2.703695023500326311e+00
1.626723051071166992e+00,2.696591937135688788e+00
1.628720998764038086e+00,2.688730679599127704e+00
1.630722045898437500e+00,2.682949028366688360e+00
1.632724761962890625e+00,2.675162276644978299e+00
1.634721994400024414e+00,2.668124159350890867e+00
1.636720180511474609e+00,2.661734540669267179e+00
1.638721466064453125e+00,2.654136139647500503e+00
1.640720367431640625e+00,2.646909075606951323e+00
1.642722606658935547e+00,2.640701847160082938e+00
1.644719839096069336e+00,2.633387164281268511e+00
1.646721124649047852e+00,2.627448752814382615e+00
1.648719072341918945e+00,2.621204569483348124e+00
1.650720357894897461e+00,2.614946677082381044e+00
1.652719736099243164e+00,2.608489705144131587e+00
1.654720306396484375e+00,2.602914882053718681e+00
1.656718730926513672e+00,2.597005080819735579e+00
1.658719778060913086e+00,2.590689371906444105e+00
1.660718917846679688e+00,2.584554861134870318e+00
1.662719726562500000e+00,2.577961394543813789e+00
1.664718627929687500e+00,2.573399850535374789e+00
1.666719675064086914e+00,2.569613763047905231e+00
1.668718814849853516e+00,2.563969798561310576e+00
1.670719623565673828e+00,2.559688992463230228e+00
1.672718524932861328e+00,2.554321593561362569e+00
1.674718618392944336e+00,2.550793594216536953e+00
1.676717758178710938e+00,2.546137874858125816e+00
1.678718566894531250e+00,2.541573350617092775e+00
1.680717945098876953e+00,2.536815111257447075e+00
1.682717800140380859e+00,2.535468046124940589e+00
1.684715032577514648e+00,2.531672421893170100e+00
1.686717748641967773e+00,2.528221312549270738e+00
1.688717842102050781e+00,2.524901333439509177e+00
1.690717935562133789e+00,2.522337737362115195e+00
1.692715883255004883e+00,2.519259157092470947e+00
1.694716691970825195e+00,2.517460884745226668e+00
1.696715831756591797e+00,2.515093984019038942e+00
1.698716878890991211e+00,2.510313094891678531e+00
1.700715541839599609e+00,2.509739698140585062e+00
1.702716827392578125e+00,2.508141697423660332e+00
1.704714775085449219e+00,2.506929338804404495e+00
1.706715822219848633e+00,2.505145371573611612e+00
1.708714962005615234e+00,2.503958046908145718e+00
1.710716485977172852e+00,2.502599656891781876e+00
1.712714672088623047e+00,2.501638829903463090e+00
1.714715480804443359e+00,2.500785291288529777e+00
1.716714382171630859e+00,2.499823868253692183e+00
1.718715429306030273e+00,2.498444616609170055e+00
1.720719575881958008e+00,2.497980296371018483e+00
1.722714662551879883e+00,2.491415440012865190e+00
1.724714517593383789e+00,2.493604718876447635e+00
1.726714849472045898e+00,2.495535909597386137e+00
1.728714227676391602e+00,2.494678794703339975e+00
1.730714321136474609e+00,2.495653330761591349e+00
1.732713699340820312e+00,2.493351995152472966e+00
1.734714269638061523e+00,2.495372592851232696e+00
1.736713171005249023e+00,2.493914663066227888e+00
1.738713264465332031e+00,2.494862377031132894e+00
1.740712642669677734e+00,2.495221197035455418e+00
1.742713212966918945e+00,2.496559321470179782e+00
1.744711875915527344e+00,2.497129737988679210e+00
1.746712923049926758e+00,2.497995197533988687e+00
1.748711824417114258e+00,2.499413788248752155e+00
1.750712871551513672e+00,2.499744594066690695e+00
1.752711534500122070e+00,2.500894367801471674e+00
1.754723310470581055e+00,2.502239644794421736e+00
1.756712913513183594e+00,2.502573430844954316e+00
1.758712053298950195e+00,2.503627837136725987e+00
1.760710716247558594e+00,2.505499423205783671e+00
1.762711763381958008e+00,2.506009042979364665e+00
1.764709234237670898e+00,2.506928742757885686e+00
1.766711473464965820e+00,2.508789599989604824e+00
1.768710613250732422e+00,2.509655655581433109e+00
1.770711183547973633e+00,2.510937155596870696e+00
1.772710561752319336e+00,2.512602509570420750e+00
1.774711132049560547e+00,2.513950170749446045e+00
1.776709794998168945e+00,2.515195311927236332e+00
1.778711080551147461e+00,2.516652645665722776e+00
1.780708312988281250e+00,2.517824473121699658e+00
1.782710075378417969e+00,2.518998684763751772e+00
1.784707784652709961e+00,2.520382704780424366e+00
1.786715030670166016e+00,2.521648707586372939e+00
1.788712501525878906e+00,2.511460484440384278e+00
1.790709972381591797e+00,2.506311834610919220e+00
1.792708635330200195e+00,2.512806953526371956e+00
1.794708728790283203e+00,2.507397235321668916e+00
1.796707391738891602e+00,2.518049182659290341e+00
1.798709154129028320e+00,2.520648541527812814e+00
1.800707817077636719e+00,2.522422375967785957e+00
1.802708625793457031e+00,2.523953023428085363e+00
1.804707288742065430e+00,2.526127401128697603e+00
1.806707620620727539e+00,2.528039518361034244e+00
1.808706521987915039e+00,2.530765835138062858e+00
1.810707807540893555e+00,2.531807724452939556e+00
1.812706470489501953e+00,2.534261051924354025e+00
1.814708232879638672e+00,2.535822097757112648e+00
1.816706180572509766e+00,2.537799184059999380e+00
1.818707704544067383e+00,2.539578978965160605e+00
1.820707082748413086e+00,2.541024987819789249e+00
1.822707653045654297e+00,2.541774218293931131e+00
1.824704885482788086e+00,2.543080752263158661e+00
1.826706409454345703e+00,2.544651334840218215e+00
1.828705310821533203e+00,2.547003334403435737e+00
1.830705881118774414e+00,2.546277349743526930e+00
1.832704544067382812e+00,2.550120657696802517e+00
1.834705114364624023e+00,2.551084464917715344e+00
1.836705207824707031e+00,2.551746672600111232e+00
1.838706493377685547e+00,2.552895254241854595e+00
1.840705156326293945e+00,2.554436630539492548e+00
1.842705965042114258e+00,2.555260962875004260e+00
1.844703912734985352e+00,2.555582231948641869e+00
1.846704483032226562e+00,2.557115859641535316e+00
1.848703384399414062e+00,2.557905621278956154e+00
1.850704431533813477e+00,2.559288449202591131e+00
1.852702856063842773e+00,2.560069270142229847e+00
1.854704141616821289e+00,2.561058707363451425e+00
1.856702566146850586e+00,2.562946982735035739e+00
1.858703613281250000e+00,2.562910027850869632e+00
1.860703229904174805e+00,2.562865920408477827e+00
1.862705469131469727e+00,2.562585778544637982e+00
1.864702224731445312e+00,2.563188381575153052e+00
1.866703510284423828e+00,2.563376136228577629e+00
1.868701457977294922e+00,2.562666244824677086e+00
1.870702981948852539e+00,2.562501139938967221e+00
1.872701406478881836e+00,2.561218447830492018e+00
1.874702215194702148e+00,2.560690946661346779e+00
1.876700639724731445e+00,2.560873932942620890e+00
1.878702402114868164e+00,2.560946054571396679e+00
1.880701541900634766e+00,2.561593957137341171e+00
1.882702589035034180e+00,2.561804957604999267e+00
1.884700059890747070e+00,2.561168975969430939e+00
1.886701822280883789e+00,2.558906383384035088e+00
1.888700008392333984e+00,2.557264871271237361e+00
1.890701532363891602e+00,2.555678195438169986e+00
1.892700433731079102e+00,2.553808993555187534e+00
1.894701004028320312e+00,2.552120989813922769e+00
1.896699905395507812e+00,2.549656337458650945e+00
1.898700952529907227e+00,2.547070687660061061e+00
1.900699615478515625e+00,2.544929688564501635e+00
1.902700901031494141e+00,2.542241518764676744e+00
1.904698848724365234e+00,2.540384237812070456e+00
1.906699895858764648e+00,2.537902300107753195e+00
1.908699274063110352e+00,2.534671131929294052e+00
1.910700082778930664e+00,2.533284727726546226e+00
1.912698268890380859e+00,2.530479136762516124e+00
1.914699316024780273e+00,2.527799907660473355e+00
1.916697978973388672e+00,2.525314393677043245e+00
1.918699264526367188e+00,2.524534764830442146e+00
1.920701980590820312e+00,2.523386183188698784e+00
1.922699928283691406e+00,2.519933881751761806e+00
1.924698591232299805e+00,2.517704667771419214e+00
1.926698684692382812e+00,2.517223658230741012e+00
1.928697586059570312e+00,2.515104712856377489e+00
1.930698394775390625e+00,2.514590324710646030e+00
1.932697057723999023e+00,2.510024608376575372e+00
1.934697151184082031e+00,2.510752381176040160e+00
1.936697006225585938e+00,2.509087623249008914e+00
1.938697099685668945e+00,2.509199679994544852e+00
1.940696477890014648e+00,2.507924140444295347e+00
1.942697286605834961e+00,2.505808771349045116e+00
1.944696187973022461e+00,2.504117191328667502e+00
1.946696996688842773e+00,2.503427565506406438e+00
1.948695898056030273e+00,2.501589358042402012e+00
1.950696468353271484e+00,2.500742375939175588e+00
1.952694892883300781e+00,2.498235404281068384e+00
1.954695701599121094e+00,2.497651278692636367e+00
1.956694364547729492e+00,2.495321332850615192e+00
1.958695650100708008e+00,2.494550644701796216e+00
1.960695028305053711e+00,2.493993937253229376e+00
1.962695360183715820e+00,2.492308913744558652e+00
1.964694023132324219e+00,2.491605578852364999e+00
1.966695070266723633e+00,2.490457593257140445e+00
1.968693971633911133e+00,2.490039168600937103e+00
1.970695018768310547e+00,2.489591537665312160e+00
1.972693681716918945e+00,2.490191756509751997e+00
1.974694252014160156e+00,2.489854394180106567e+00
1.976692914962768555e+00,2.489912806738949769e+00
1.978694200515747070e+00,2.490719257678897236e+00
1.980692625045776367e+00,2.489763199062728916e+00
1.982693910598754883e+00,2.489603458595688323e+00
1.984691858291625977e+00,2.490535675351104317e+00
1.986693620681762695e+00,2.490939198844337454e+00
1.988692760467529297e+00,2.490392028140071545e+00
1.990693807601928711e+00,2.490822969773169859e+00
1.992692470550537109e+00,2.491747437923841346e+00
1.994693517684936523e+00,2.492865025146606683e+00
1.996691942214965820e+00,2.493169008871198855e+00
1.998691797256469727e+00,2.494073211440230864e+00
2.000691175460815430e+00,2.493687569342561972e+00
2.002691984176635742e+00,2.493624984458087113e+00
2.004690647125244141e+00,2.494988142846601420e+00
2.006691932678222656e+00,2.496074139603869924e+00
2.008691310882568359e+00,2.497961818928935429e+00
2.010691165924072266e+00,2.498913109172953284e+00
2.012690782546997070e+00,2.494582235167293049e+00
2.014691829681396484e+00,2.499793469881232966e+00
2.016690492630004883e+00,2.500883638964133127e+00
2.018690824508666992e+00,2.503179014108063427e+00
2.020689964294433594e+00,2.505580485532341584e+00
2.022690057754516602e+00,2.507084310899294621e+00
2.024688482284545898e+00,2.508914173712035733e+00
2.026690483093261719e+00,2.511527837697009602e+00
2.028688907623291016e+00,2.513184847019296342e+00
2.030690193176269531e+00,2.513519825162866539e+00
2.032688856124877930e+00,2.514087261448771926e+00
2.034689903259277344e+00,2.515725793328976057e+00
2.036688566207885742e+00,2.516367139383213658e+00
2.038690328598022461e+00,2.519246044069057167e+00
2.040688514709472656e+00,2.522886696205937529e+00
2.042689085006713867e+00,2.523243728070703629e+00
2.044687032699584961e+00,2.525698247635155713e+00
2.046689033508300781e+00,2.527591291378890492e+00
2.048687458038330078e+00,2.527933422080686388e+00
2.050688982009887695e+00,2.528780404183912811e+00
2.052687644958496094e+00,2.529157105583799581e+00
2.054688692092895508e+00,2.528373304411566824e+00
2.056688308715820312e+00,2.530345026295784283e+00
2.058688640594482422e+00,2.530530992809652435e+00
2.060687065124511719e+00,2.531099621188595439e+00
2.062687158584594727e+00,2.530970279094014064e+00
2.064686536788940430e+00,2.531710568870373823e+00
2.066686630249023438e+00,2.532734576789686276e+00
2.068686008453369141e+00,2.533474866566046035e+00
2.070686340332031250e+00,2.533538047497039702e+00
2.072685241699218750e+00,2.534157339830081401e+00
2.074687242507934570e+00,2.533994023083927960e+00
2.076685428619384766e+00,2.534596626114443030e+00
2.078686714172363281e+00,2.534782592628311182e+00
2.080685377120971680e+00,2.536073629388049699e+00
2.082685708999633789e+00,2.534535233323005787e+00
2.084683418273925781e+00,2.536076609620643740e+00
2.086685419082641602e+00,2.536351983112333119e+00
2.088684082031250000e+00,2.536521260323674642e+00
2.090685129165649414e+00,2.537338440100960657e+00
2.092689037322998047e+00,2.538005416155507010e+00
2.094685077667236328e+00,2.537995879411206079e+00
2.096683263778686523e+00,2.537962500806152821e+00
2.098684310913085938e+00,2.537591759871454133e+00
2.100683450698852539e+00,2.538518612208200853e+00
2.102684259414672852e+00,2.537052337771932731e+00
2.104682207107543945e+00,2.538568680115780740e+00
2.106683015823364258e+00,2.538829152444499915e+00
2.108682155609130859e+00,2.538973991748570302e+00
2.110683202743530273e+00,2.539362018032314428e+00
2.112681150436401367e+00,2.539882962689752777e+00
2.114683628082275391e+00,2.539284531984869364e+00
2.116681575775146484e+00,2.539339368264599717e+00
2.118683099746704102e+00,2.538363640113310726e+00
2.120698690414428711e+00,2.539009754539698793e+00
2.122680425643920898e+00,2.534252707273090710e+00
2.124681472778320312e+00,2.535697524034681738e+00
2.126681327819824219e+00,2.536719743814437766e+00
2.128692865371704102e+00,2.536107007993102957e+00
2.130686521530151367e+00,2.534665767510624779e+00
2.132681846618652344e+00,2.534396354484123481e+00
2.134682655334472656e+00,2.534510199369215844e+00
2.136681795120239258e+00,2.535618249847680250e+00
2.138682603836059570e+00,2.536380593345235912e+00
2.140681982040405273e+00,2.537015382887766624e+00
2.142682313919067383e+00,2.536653582650850058e+00
2.144681215286254883e+00,2.538519804301238469e+00
2.146682024002075195e+00,2.540120785250757240e+00
2.148679733276367188e+00,2.540787165258784785e+00
2.150681972503662109e+00,2.541500632941798177e+00
2.152679443359375000e+00,2.543054526216331102e+00
2.154680490493774414e+00,2.544899290192042418e+00
2.156679630279541016e+00,2.546497886955485956e+00
2.158681392669677734e+00,2.547959393019604057e+00
2.160680294036865234e+00,2.550035423044612948e+00
2.162680864334106445e+00,2.550015157462973470e+00
2.164678812026977539e+00,2.552879757032365582e+00
2.166680574417114258e+00,2.554709023798587886e+00
2.168681144714355469e+00,2.555997080325732362e+00
2.170679330825805664e+00,2.557345933597795273e+00
2.172677755355834961e+00,2.562443919473161635e+00
2.174679040908813477e+00,2.568607636524157023e+00
2.176678180694580078e+00,2.574120470776613878e+00
2.178679466247558594e+00,2.580111334337155338e+00
2.180679559707641602e+00,2.586035440687589837e+00
2.182678937911987305e+00,2.590158890504704825e+00
2.184677600860595703e+00,2.596316051043993323e+00
2.186678647994995117e+00,2.601926040879015911e+00
2.188678026199340820e+00,2.607897830950955065e+00
2.190678596496582031e+00,2.613054825431683881e+00
2.192676544189453125e+00,2.616861774547311725e+00
2.194677829742431641e+00,2.621158077854881085e+00
2.196676015853881836e+00,2.624129369751139862e+00
2.198677778244018555e+00,2.627535775606128610e+00
2.200677394866943359e+00,2.630542830293515877e+00
2.202677488327026367e+00,2.631792143796937822e+00
2.204676151275634766e+00,2.634873704299176111e+00
2.206676721572875977e+00,2.636368588968347026e+00
2.208675861358642578e+00,2.638852910858739520e+00
2.210676193237304688e+00,2.640378789946888460e+00
2.212674856185913086e+00,2.641132788793181252e+00
2.214675903320312500e+00,2.642023878338799481e+00
2.216675043106079102e+00,2.641697244846492598e+00
2.218680381774902344e+00,2.641678767404409545e+00
2.220678329467773438e+00,2.639956192965053461e+00
2.222676277160644531e+00,2.638305740154473611e+00
2.224674463272094727e+00,2.637978510615647920e+00
2.226676464080810547e+00,2.636983708975757068e+00
2.228674173355102539e+00,2.635134176627895286e+00
2.230676174163818359e+00,2.633191064976580620e+00
2.232672929763793945e+00,2.631008938671223873e+00
2.234675884246826172e+00,2.627106026066067912e+00
2.236673831939697266e+00,2.614758922428956467e+00
2.238674402236938477e+00,2.618149235027937394e+00
2.240673780441284180e+00,2.614815546848243244e+00
2.242674589157104492e+00,2.611041976337668657e+00
2.244673013687133789e+00,2.608212543512885784e+00
2.246674060821533203e+00,2.604578447887712311e+00
2.248672962188720703e+00,2.601228666452010341e+00
2.250673532485961914e+00,2.596723150816339309e+00
2.252671957015991211e+00,2.594594668697675299e+00
2.254672765731811523e+00,2.591552447265678349e+00
2.256671428680419922e+00,2.588525126996651604e+00
2.258672475814819336e+00,2.585837553243345521e+00
2.260672092437744141e+00,2.580700824344256628e+00
2.262672901153564453e+00,2.577888080822000383e+00
2.264670848846435547e+00,2.575279185209176980e+00
2.266672611236572266e+00,2.572019406797815044e+00
2.268671512603759766e+00,2.569419451882773764e+00
2.270671844482421875e+00,2.565533824626663240e+00
2.272670984268188477e+00,2.562907643664794399e+00
2.274672031402587891e+00,2.559714622463538980e+00
2.276669979095458984e+00,2.556589550565427693e+00
2.278671503067016602e+00,2.553108638895587923e+00
2.280670166015625000e+00,2.550232714442338455e+00
2.282670736312866211e+00,2.547806805110789163e+00
2.284669637680053711e+00,2.545194929265371275e+00
2.286670446395874023e+00,2.542920415749599261e+00
2.288669586181640625e+00,2.540878360376162437e+00
2.290670394897460938e+00,2.538084690342508498e+00
2.292669057846069336e+00,2.536258403808880235e+00
2.294670820236206055e+00,2.534339134018317896e+00
2.296669483184814453e+00,2.532449070507177158e+00
2.298670291900634766e+00,2.529446784191940356e+00
2.300668954849243164e+00,2.527341547887509865e+00
2.302669763565063477e+00,2.525809708334172843e+00
2.304667711257934570e+00,2.523782554123706223e+00
2.306669235229492188e+00,2.522197070383676465e+00
2.308668136596679688e+00,2.520954909438480218e+00
2.310668706893920898e+00,2.518307270801934283e+00
2.312667608261108398e+00,2.516962589855503030e+00
2.314669370651245117e+00,2.515604199839138744e+00
2.316667079925537109e+00,2.514374555870837469e+00
2.318668127059936523e+00,2.512167991658209587e+00
2.320669412612915039e+00,2.511056364900632332e+00
2.322698354721069336e+00,2.505004108548654074e+00
2.324666023254394531e+00,2.504808009243966183e+00
2.326667070388793945e+00,2.506031692747079376e+00
2.328666925430297852e+00,2.503460944111459696e+00
2.330667257308959961e+00,2.502842843871455614e+00
2.332667589187622070e+00,2.500036656860906703e+00
2.334667444229125977e+00,2.500478327331343564e+00
2.336666822433471680e+00,2.498395740794627784e+00
2.338666915893554688e+00,2.496439516119899338e+00
2.340665340423583984e+00,2.497161328454176044e+00
2.342665672302246094e+00,2.496199905419338450e+00
2.344664812088012695e+00,2.494767009588123585e+00
2.346665620803833008e+00,2.494136988417743339e+00
2.348663806915283203e+00,2.493756710738743720e+00
2.350670099258422852e+00,2.493211924220553044e+00
2.352664709091186523e+00,2.492609321190037974e+00
2.354665756225585938e+00,2.492299377000257721e+00
2.356663942337036133e+00,2.491217552568620874e+00
2.358665227890014648e+00,2.490697800004220142e+00
2.360663414001464844e+00,2.490765749307364274e+00
2.362665653228759766e+00,2.490178047439819409e+00
2.364662647247314453e+00,2.489521204176092795e+00
2.366663932800292969e+00,2.489796577667782174e+00
2.368663072586059570e+00,2.490132151857871179e+00
2.370664119720458984e+00,2.490328847209077878e+00
2.372662544250488281e+00,2.490195928835383654e+00
2.374664068222045898e+00,2.490260897905933746e+00
2.376662254333496094e+00,2.489991484879432448e+00
2.378663778305053711e+00,2.490837870936140064e+00
2.380662441253662109e+00,2.491171060940153836e+00
2.382664203643798828e+00,2.491154967684146015e+00
2.384661436080932617e+00,2.491315900244224224e+00
2.386662244796752930e+00,2.492710053051716557e+00
2.388661146163940430e+00,2.492735683052025308e+00
2.390662193298339844e+00,2.493042050962692713e+00
2.392661094665527344e+00,2.493642269807132550e+00
2.394661903381347656e+00,2.494581639120774241e+00
2.396660804748535156e+00,2.495308219827201412e+00
2.398693799972534180e+00,2.495436965875263979e+00
2.400665760040283203e+00,2.475392517494263256e+00
2.402662515640258789e+00,2.490757404656100960e+00
2.404660940170288086e+00,2.490957676286420508e+00
2.406661510467529297e+00,2.492217122580662192e+00
2.408660173416137695e+00,2.493249475151237959e+00
2.410660505294799805e+00,2.494969665404518366e+00
2.412659645080566406e+00,2.495601474714455037e+00
2.414660930633544922e+00,2.497359215898420359e+00
2.416658878326416016e+00,2.498209178234240824e+00
2.418660163879394531e+00,2.500486075936088071e+00
2.420659065246582031e+00,2.501663863857253034e+00
2.422661304473876953e+00,2.502823770382853752e+00
2.424658298492431641e+00,2.503946722024288363e+00
2.426659822463989258e+00,2.504761517615499145e+00
2.428657770156860352e+00,2.506115735306231329e+00
2.430659055709838867e+00,2.507953942770235756e+00
2.432657241821289062e+00,2.508854569060154915e+00
2.434659004211425781e+00,2.509845198374414110e+00
2.436657428741455078e+00,2.511415184904954856e+00
2.438658237457275391e+00,2.511443795137857649e+00
2.440657377243041992e+00,2.513491810976482554e+00
2.442659139633178711e+00,2.514886559830493695e+00
2.444656848907470703e+00,2.514983119366540620e+00
2.446658849716186523e+00,2.516276540312354815e+00
2.448656558990478516e+00,2.517660560329027408e+00
2.450657844543457031e+00,2.518171372195646018e+00
2.452656269073486328e+00,2.519171538254206144e+00
2.454657077789306641e+00,2.520212235476045226e+00
2.456655740737915039e+00,2.520371975943085818e+00
2.458656787872314453e+00,2.522214951779240710e+00
2.460655450820922852e+00,2.522484364805742008e+00
2.462656974792480469e+00,2.524758878321514022e+00
2.464655876159667969e+00,2.524962726230946419e+00
2.466656684875488281e+00,2.526104751360982892e+00
2.468655109405517578e+00,2.526719871368392933e+00
2.470656156539916992e+00,2.527612749053567587e+00
2.472655057907104492e+00,2.528804246044665138e+00
2.474660158157348633e+00,2.530464831646064727e+00
2.476655006408691406e+00,2.523212137605206795e+00
2.478656053543090820e+00,2.529159489769874813e+00
2.480654001235961914e+00,2.530529204670096011e+00
2.482656955718994141e+00,2.530854646069365277e+00
2.484655857086181641e+00,2.531215254213244226e+00
2.486654996871948242e+00,2.531636063055522801e+00
2.488653421401977539e+00,2.533080283770595020e+00
2.490654230117797852e+00,2.533076111444963363e+00
2.492653369903564453e+00,2.534007732153860548e+00
2.494653940200805664e+00,2.534565631695465004e+00
2.496652841567993164e+00,2.535260025889876534e+00
2.498653411865234375e+00,2.536036078457364784e+00
2.500652790069580078e+00,2.536459867532237400e+00
2.502654314041137695e+00,2.537187044285183379e+00
2.504652738571166992e+00,2.536654774743887675e+00
2.506653308868408203e+00,2.537721101966035508e+00
2.508651971817016602e+00,2.538202707553232518e+00
2.510652542114257812e+00,2.538235490111766968e+00
2.512651681900024414e+00,2.539182608030153165e+00
2.514652967453002930e+00,2.538577620813562863e+00
2.516650676727294922e+00,2.539314334310809773e+00
2.518652439117431641e+00,2.539308373845621691e+00
2.520656585693359375e+00,2.539571230360416099e+00
2.522653102874755859e+00,2.537536923591723781e+00
2.524651288986206055e+00,2.535103265655429983e+00
2.526650905609130859e+00,2.537762229175833273e+00
2.528650283813476562e+00,2.537476126846805347e+00
2.530650854110717773e+00,2.537208501959860474e+00
2.532650470733642578e+00,2.537207309866822857e+00
2.534650087356567383e+00,2.537715141500847427e+00
2.536649703979492188e+00,2.537231151727575185e+00
2.538650751113891602e+00,2.538732592908452990e+00
2.540648698806762695e+00,2.537508313358820988e+00
2.542651176452636719e+00,2.538427417090823202e+00
2.544648408889770508e+00,2.537491028009775551e+00
2.546649694442749023e+00,2.537943427317550960e+00
2.548648357391357422e+00,2.538150851506096206e+00
2.550650119781494141e+00,2.538048331504861199e+00
2.552651405334472656e+00,2.538299267089279443e+00
2.554649114608764648e+00,2.538449470812019104e+00
2.556647300720214844e+00,2.538674776396128596e+00
2.558648586273193359e+00,2.539292876636132679e+00
2.560647010803222656e+00,2.540552322930374363e+00
2.562649011611938477e+00,2.540892665492613833e+00
2.564691305160522461e+00,2.539751236409096169e+00
2.566659212112426758e+00,2.527944746964543743e+00
2.568644285202026367e+00,2.537542884056911863e+00
2.570648193359375000e+00,2.539043729191270860e+00
2.572646379470825195e+00,2.538955514306487249e+00
2.574646949768066406e+00,2.539988462923581825e+00
2.576644897460937500e+00,2.540459339673440287e+00
2.578646183013916016e+00,2.540375297114288333e+00
2.580644845962524414e+00,2.542044227366951237e+00
2.582647800445556641e+00,2.542732065049655876e+00
2.584643602371215820e+00,2.541935150854009340e+00
2.586645603179931641e+00,2.543008034587864064e+00
2.588643789291381836e+00,2.542857830865124402e+00
2.590646028518676758e+00,2.544377153441566453e+00
2.592643260955810547e+00,2.543773358318013766e+00
2.594645261764526367e+00,2.544041579251477447e+00
2.596643209457397461e+00,2.544053500181853611e+00
2.598644256591796875e+00,2.542627756908864445e+00
2.600642681121826172e+00,2.541125719681467832e+00
2.602646589279174805e+00,2.538592521976533067e+00
2.604641199111938477e+00,2.537821833827714091e+00
2.606643438339233398e+00,2.537817065455563625e+00
2.608642339706420898e+00,2.536253039390210962e+00
2.610643148422241211e+00,2.534203235412029631e+00
2.612642526626586914e+00,2.531583610961867681e+00
2.614644527435302734e+00,2.530080381641433451e+00
2.616641998291015625e+00,2.527549568122573920e+00
2.618643045425415039e+00,2.524756494135438789e+00
2.620640993118286133e+00,2.521390619443728998e+00
2.622643947601318359e+00,2.518754305691040418e+00
2.624639987945556641e+00,2.516423763802500435e+00
2.626641988754272461e+00,2.514892520295681777e+00
2.628640651702880859e+00,2.513095440041475115e+00
2.630642414093017578e+00,2.510465682800493425e+00
2.632640361785888672e+00,2.509170473715123251e+00
2.634642601013183594e+00,2.507066429503730376e+00
2.636640548706054688e+00,2.506524623218133740e+00
2.638641595840454102e+00,2.505814135767714390e+00
2.640640497207641602e+00,2.504402697611176620e+00
2.642642736434936523e+00,2.501511871994956948e+00
2.644638776779174805e+00,2.501924336185972209e+00
2.646641016006469727e+00,2.502600252938300684e+00
2.648639440536499023e+00,2.502625286892090628e+00
2.650640487670898438e+00,2.502684891543971446e+00
2.652638912200927734e+00,2.503302395737456720e+00
2.654640674591064453e+00,2.504460514123501014e+00
2.656638860702514648e+00,2.503692806207276078e+00
2.658639907836914062e+00,2.504898608314825026e+00
2.660638332366943359e+00,2.506985963223691272e+00
2.662641048431396484e+00,2.507117689504347879e+00
2.664636611938476562e+00,2.506911457408840249e+00
2.666639566421508789e+00,2.509393991159676318e+00
2.668637752532958984e+00,2.509943546050017460e+00
2.670638084411621094e+00,2.510906757224411479e+00
2.672637224197387695e+00,2.512167395611690779e+00
2.674638271331787109e+00,2.513972224470641947e+00
2.676636695861816406e+00,2.515315713324035585e+00
2.678638458251953125e+00,2.517634334282199848e+00
2.680636405944824219e+00,2.520341577570626601e+00
2.682638883590698242e+00,2.523182931325785194e+00
2.684636592864990234e+00,2.525451484376369127e+00
2.686637163162231445e+00,2.529077235350279285e+00
2.688635826110839844e+00,2.531203929329386870e+00
2.690636634826660156e+00,2.532545630043224083e+00
2.692635059356689453e+00,2.533967797037100400e+00
2.694637060165405273e+00,2.534960214490916020e+00
2.696634769439697266e+00,2.535807196594142443e+00
2.698637247085571289e+00,2.537072007307053401e+00
2.700635194778442383e+00,2.538425628951266777e+00
2.702636718750000000e+00,2.539322082915554279e+00
2.704635143280029297e+00,2.539415662219007164e+00
2.706636428833007812e+00,2.542276685509286427e+00
2.708633661270141602e+00,2.543779318783201848e+00
2.710635185241699219e+00,2.544774120423092700e+00
2.712634563446044922e+00,2.546501463234598805e+00
2.714635133743286133e+00,2.548778360936446497e+00
2.716633558273315430e+00,2.550012177230379429e+00
2.718635559082031250e+00,2.551933235160498192e+00
2.720637083053588867e+00,2.552565044470434863e+00
2.722636222839355469e+00,2.549494212805535120e+00
2.724633693695068359e+00,2.551365798874592805e+00
2.726634502410888672e+00,2.555853433114699591e+00
2.728632926940917969e+00,2.556340403120565874e+00
2.730633974075317383e+00,2.557418651273089871e+00
2.732632637023925781e+00,2.558032579187462296e+00
2.734633445739746094e+00,2.559454150134819805e+00
2.736632823944091797e+00,2.558582730124322246e+00
2.738633394241333008e+00,2.561193413876702074e+00
2.740631580352783203e+00,2.562037415747334457e+00
2.742633104324340820e+00,2.562390871332987707e+00
2.744632244110107422e+00,2.560633726195541193e+00
2.746632814407348633e+00,2.563109703434670372e+00
2.748661994934082031e+00,2.561668462952192193e+00
2.750834941864013672e+00,2.562791414593626804e+00
2.752728939056396484e+00,2.550348943513506050e+00
2.754636526107788086e+00,2.550294703280294506e+00
2.756628751754760742e+00,2.554930753103584529e+00
2.758632898330688477e+00,2.555669254740387863e+00
2.760629892349243164e+00,2.554661936123602040e+00
2.762632608413696289e+00,2.555041617756082850e+00
2.764630556106567383e+00,2.552169269581946232e+00
2.766663551330566406e+00,2.553277320060410638e+00
2.768629312515258789e+00,2.530731860486490792e+00
2.770632743835449219e+00,2.546793526028814814e+00
2.772629022598266602e+00,2.546401923465957839e+00
2.774630308151245117e+00,2.546870416029741069e+00
2.776628971099853516e+00,2.547906344879430129e+00
2.778637886047363281e+00,2.549284404430914641e+00
2.780629158020019531e+00,2.553879923090925708e+00
2.782634258270263672e+00,2.557967610116912205e+00
2.784629344940185547e+00,2.559995360373897633e+00
2.786630392074584961e+00,2.565437265090616314e+00
2.788628101348876953e+00,2.568236299542939527e+00
2.790629625320434570e+00,2.569145270484122001e+00
2.792627573013305664e+00,2.568345376055881424e+00
2.794628858566284180e+00,2.568860360248131691e+00
2.796626567840576172e+00,2.568397232103017735e+00
2.798628807067871094e+00,2.567872115119947729e+00
2.800626993179321289e+00,2.568552800244426670e+00
2.802628040313720703e+00,2.568577834198216614e+00
2.804627180099487305e+00,2.568133779541704520e+00
2.806629419326782227e+00,2.571903177726647449e+00
2.808626413345336914e+00,2.571218320276536851e+00
2.810631036758422852e+00,2.576099941265575843e+00
2.812626123428344727e+00,2.578810760833115889e+00
2.814626693725585938e+00,2.579821059682495754e+00
2.816625356674194336e+00,2.582325051108008918e+00
2.818627119064331055e+00,2.583906362522407019e+00
2.820625066757202148e+00,2.586393068598874745e+00
2.822627067565917969e+00,2.589386414216329424e+00
2.824625968933105469e+00,2.590881298885500339e+00
2.826627254486083984e+00,2.592950772398802339e+00
2.828624963760375977e+00,2.595813583828638027e+00
2.830626487731933594e+00,2.597945046179896078e+00
2.832625150680541992e+00,2.599813652016359722e+00
2.834625959396362305e+00,2.602550101584208075e+00
2.836623668670654297e+00,2.604423475792822185e+00
2.838624954223632812e+00,2.605719280924711168e+00
2.840623378753662109e+00,2.607205820942618768e+00
2.842624664306640625e+00,2.606212807442284340e+00
2.844624519348144531e+00,2.602636528329435261e+00
2.846624374389648438e+00,2.601565432735136962e+00
2.848623514175415039e+00,2.600043725972619679e+00
2.850625038146972656e+00,2.597470593150924767e+00
2.852622985839843750e+00,2.596521091046463336e+00
2.854624748229980469e+00,2.598278236183909851e+00
2.856622695922851562e+00,2.598750305026805929e+00
2.858623981475830078e+00,2.598822426655581719e+00
2.860622644424438477e+00,2.600335788766835687e+00
2.862623214721679688e+00,2.600865674122056159e+00
2.864622116088867188e+00,2.599295687591515414e+00
2.866623163223266602e+00,2.598650765258164963e+00
2.868620634078979492e+00,2.597253632218078589e+00
2.870622158050537109e+00,2.595755171269794825e+00
2.872621536254882812e+00,2.594529103580606400e+00
2.874623298645019531e+00,2.593781661246020942e+00
2.876621246337890625e+00,2.593739937989704369e+00
2.878622770309448242e+00,2.594484996138214594e+00
2.880620718002319336e+00,2.594347309392369905e+00
2.882622003555297852e+00,2.592774342629235118e+00
2.884620189666748047e+00,2.592103194249057108e+00
2.886621475219726562e+00,2.592478703555906261e+00
2.888619661331176758e+00,2.592164587040494350e+00
2.890620946884155273e+00,2.592043589597176290e+00
2.892619371414184570e+00,2.592174123784795281e+00
2.894620656967163086e+00,2.591438006334067179e+00
2.896620035171508789e+00,2.591305684006891763e+00
2.898621797561645508e+00,2.591594170521994922e+00
2.900619029998779297e+00,2.590229223993924190e+00
2.902619838714599609e+00,2.590393136786596440e+00
2.904618978500366211e+00,2.589664767940612844e+00
2.906619787216186523e+00,2.588767121883287725e+00
2.908617734909057617e+00,2.590043257480056038e+00
2.910619258880615234e+00,2.590775202605152483e+00
2.912618398666381836e+00,2.590806793070649316e+00
2.914619922637939453e+00,2.591264556797093999e+00
2.916617870330810547e+00,2.591680001220703300e+00
2.918619155883789062e+00,2.592739175884625435e+00
2.920623779296875000e+00,2.593018125655427664e+00
2.922619104385375977e+00,2.588708113277925715e+00
2.924617528915405273e+00,2.590156506318629592e+00
2.926618337631225586e+00,2.592123459830696586e+00
2.928617715835571289e+00,2.592228960064525634e+00
2.930618047714233398e+00,2.593489598451804934e+00
2.932617425918579102e+00,2.593210052634483898e+00
2.934617519378662109e+00,2.595134686843715510e+00
2.936616659164428711e+00,2.595850538712804134e+00
2.938617706298828125e+00,2.597583245942979513e+00
2.940616130828857422e+00,2.598628115490450252e+00
2.942617654800415039e+00,2.600360822720625631e+00
2.944615840911865234e+00,2.601610732270566384e+00
2.946616888046264648e+00,2.598771762701483024e+00
2.948614597320556641e+00,2.600406718302573861e+00
2.950616836547851562e+00,2.600012135507122846e+00
2.952614545822143555e+00,2.600408506442130285e+00
2.954616069793701172e+00,2.599942398064422289e+00
2.957885980606079102e+00,2.581497142493384356e+00
2.959807157516479492e+00,2.586632679299435633e+00
2.961680173873901367e+00,2.582768509718002203e+00
2.963621139526367188e+00,2.590271543296759571e+00
2.965616941452026367e+00,2.589480589566301116e+00
2.967616796493530273e+00,2.591438006334067179e+00
2.969615459442138672e+00,2.591044019585134972e+00
2.971615791320800781e+00,2.593024086120615745e+00
2.973615407943725586e+00,2.593043755655736415e+00
2.975615262985229492e+00,2.594372939392678656e+00
2.977614879608154297e+00,2.594853948933356858e+00
2.979615449905395508e+00,2.595112633122519608e+00
2.981614351272583008e+00,2.595913719643797801e+00
2.983615159988403320e+00,2.596474599417996298e+00
2.985613822937011719e+00,2.595956038946633182e+00
2.987614393234252930e+00,2.597308468497808942e+00
2.989613771438598633e+00,2.597318601288628681e+00
2.991613864898681641e+00,2.598067831762770563e+00
2.993613243103027344e+00,2.598014187576077827e+00
2.995612859725952148e+00,2.598590564559765337e+00
2.997613430023193359e+00,2.598218631532029033e+00
2.999612808227539062e+00,2.598405790138934801e+00
3.001612186431884766e+00,2.599158000845670724e+00
3.003613948822021484e+00,2.598738980142948574e+00
3.005612611770629883e+00,2.599042367821021937e+00
3.007612466812133789e+00,2.600596261095554862e+00
3.009612560272216797e+00,2.600663614352180186e+00
3.011611700057983398e+00,2.602565002747178280e+00
3.013611793518066406e+00,2.603462648804503399e+00
3.015611648559570312e+00,2.604843688588581951e+00
3.017611265182495117e+00,2.604987931846133531e+00
3.019611358642578125e+00,2.605447483712134638e+00
3.021610736846923828e+00,2.606125188604019538e+00
3.023612022399902344e+00,2.606968594428133112e+00
3.025610685348510742e+00,2.607684446297221736e+00
3.027611017227172852e+00,2.608563018865944994e+00
3.029610157012939453e+00,2.608145190256260459e+00
3.031610727310180664e+00,2.608298970258112970e+00
3.033610105514526367e+00,2.606967402335095496e+00
3.035609483718872070e+00,2.606653285819683585e+00
3.037609338760375977e+00,2.603112769497962997e+00
3.039609909057617188e+00,2.602548909491170459e+00
3.041609525680541992e+00,2.600581955979103466e+00
3.043610095977783203e+00,2.599068593867849497e+00
3.045609235763549805e+00,2.598600101304066268e+00
3.047609567642211914e+00,2.596040081505785135e+00
3.049608945846557617e+00,2.595986437319092399e+00
3.051609039306640625e+00,2.593749474734005300e+00
3.053608417510986328e+00,2.591669868429883561e+00
3.055608510971069336e+00,2.589866231663970009e+00
3.057608127593994141e+00,2.587551186984919038e+00
3.059607505798339844e+00,2.585748742312043102e+00
3.061606884002685547e+00,2.582630226925638706e+00
3.063607692718505859e+00,2.579474756655068202e+00
3.065607070922851562e+00,2.576176235219983290e+00
3.067615985870361328e+00,2.574026891473160994e+00
3.069606304168701172e+00,2.569203683042965203e+00
3.071607351303100586e+00,2.568263717682804703e+00
3.073607206344604492e+00,2.565831251839548521e+00
3.075606822967529297e+00,2.563451834136466267e+00
3.077606678009033203e+00,2.560729093638550502e+00
3.079607009887695312e+00,2.558741278498325222e+00
3.081605911254882812e+00,2.556442923121800881e+00
3.083606958389282227e+00,2.554226822164872068e+00
3.085605621337890625e+00,2.551104134452836014e+00
3.087620019912719727e+00,2.549916809787370120e+00
3.089620113372802734e+00,2.547586863945348945e+00
3.091618537902832031e+00,2.546098535787884476e+00
3.093617916107177734e+00,2.543794219946172053e+00
3.095618247985839844e+00,2.542150919693817901e+00
3.097617864608764648e+00,2.540762131304994842e+00
3.099618196487426758e+00,2.538858358723921516e+00
3.101617097854614258e+00,2.536682192883752851e+00
3.103617429733276367e+00,2.536000911712755101e+00
3.105617761611938477e+00,2.534507815183140611e+00
3.107616901397705078e+00,2.533396188425563356e+00
3.109617471694946289e+00,2.532108727944937687e+00
3.111617326736450195e+00,2.531464401658106045e+00
3.113616943359375000e+00,2.530854646069365277e+00
3.115616559982299805e+00,2.530088130246177958e+00
3.117615461349487305e+00,2.530082765827508684e+00
3.119616508483886719e+00,2.529949251407295652e+00
3.121620655059814453e+00,2.529421750238150413e+00
3.123617172241210938e+00,2.523721161332268981e+00
3.125615596771240234e+00,2.527963820453145605e+00
3.127615451812744141e+00,2.527981701848709850e+00
3.129615068435668945e+00,2.527448836260895337e+00
3.131614923477172852e+00,2.527674737891523638e+00
3.133615016937255859e+00,2.528153363246126606e+00
3.135614871978759766e+00,2.528519335808674828e+00
3.137614727020263672e+00,2.528496686040960117e+00
3.139614105224609375e+00,2.529059353954715039e+00
3.141613483428955078e+00,2.529556456751401061e+00
3.143614530563354492e+00,2.531069222816136222e+00
3.145614624023437500e+00,2.530892197000050192e+00
3.147614002227783203e+00,2.531943027012709013e+00
3.149613380432128906e+00,2.530216280247721716e+00
3.151613473892211914e+00,2.532201711201871763e+00
3.153613090515136719e+00,2.533560101218235605e+00
3.155613422393798828e+00,2.534600798440074687e+00
3.157613277435302734e+00,2.535907332409302217e+00
3.159612894058227539e+00,2.536827032187823239e+00
3.161612272262573242e+00,2.538404767323108491e+00
3.163612842559814453e+00,2.539344732683268990e+00
3.165611505508422852e+00,2.539785807107187043e+00
3.167612552642822266e+00,2.541480367360158699e+00
3.169611692428588867e+00,2.542712991561054015e+00
3.171611785888671875e+00,2.542985980866668161e+00
3.173611402511596680e+00,2.544561331815878180e+00
3.175611972808837891e+00,2.544979756472081522e+00
3.177611589431762695e+00,2.545741503923118376e+00
3.179611444473266602e+00,2.546748226493385392e+00
3.181611061096191406e+00,2.547765677900991399e+00
3.183611631393432617e+00,2.549078172335407011e+00
3.185610771179199219e+00,2.548418944885605164e+00
3.187610149383544922e+00,2.549360102338803280e+00
3.189609766006469727e+00,2.549594944667213703e+00
3.191610336303710938e+00,2.549924558392114626e+00
3.193610191345214844e+00,2.550831145147221868e+00
3.195610046386718750e+00,2.551454013759376416e+00
3.197609424591064453e+00,2.552090591441463552e+00
3.199609518051147461e+00,2.551974958416814765e+00
3.201609611511230469e+00,2.551857537252609553e+00
3.203609228134155273e+00,2.553019827964285504e+00
3.205609083175659180e+00,2.552818364240928339e+00
3.207608938217163086e+00,2.552776640984611767e+00
3.209608316421508789e+00,2.553057378894970419e+00
3.211608171463012695e+00,2.552940553777284016e+00
3.213607788085937500e+00,2.553439444713526463e+00
3.215609073638916016e+00,2.553220695641123861e+00
3.217607975006103516e+00,2.553020424010804312e+00
3.219612360000610352e+00,2.552801078891882902e+00
3.221608400344848633e+00,2.549491232572941080e+00
3.223608970642089844e+00,2.550725644913392820e+00
3.225606679916381836e+00,2.549882239089279246e+00
3.227607965469360352e+00,2.549560970015641637e+00
3.229607343673706055e+00,2.549529379550144803e+00
3.231608152389526367e+00,2.548953002566457293e+00
3.233607053756713867e+00,2.549125856056911665e+00
3.235607385635375977e+00,2.548474377211854325e+00
3.237606287002563477e+00,2.546862667424996562e+00
3.239607334136962891e+00,2.547386592315029397e+00
3.241606712341308594e+00,2.547128504172385455e+00
3.243606328964233398e+00,2.546262448580556725e+00
3.245604991912841797e+00,2.545059626705601818e+00
3.247606039047241211e+00,2.545056050426488969e+00
3.249604701995849609e+00,2.544040387158439831e+00
3.251605987548828125e+00,2.542108600390982520e+00
3.253604650497436523e+00,2.542295162951369480e+00
3.255603313446044922e+00,2.541622226431635045e+00
3.257601976394653320e+00,2.541431491545616428e+00
3.259607076644897461e+00,2.540621464326556112e+00
3.261604785919189453e+00,2.538014356853289133e+00
3.263605594635009766e+00,2.537604872894867913e+00
3.265604019165039062e+00,2.536868755444139811e+00
3.267604827880859375e+00,2.537612621499612420e+00
3.269604921340942383e+00,2.536316220321204629e+00
3.271604061126708984e+00,2.535549704498017309e+00
3.273604154586791992e+00,2.535596792173003156e+00
3.275604009628295898e+00,2.535754744500487323e+00
3.277602910995483398e+00,2.535921637525753614e+00
3.279603242874145508e+00,2.535463277752790123e+00
3.281603574752807617e+00,2.534671727975812860e+00
3.283603906631469727e+00,2.534542385881231485e+00
3.285603046417236328e+00,2.533260885865793899e+00
3.287602663040161133e+00,2.533052269584211036e+00
3.289602518081665039e+00,2.533234659818966339e+00
3.291602373123168945e+00,2.533094588887046417e+00
3.293601989746093750e+00,2.531507913053979042e+00
3.295602321624755859e+00,2.531585399101424105e+00
3.297601222991943359e+00,2.530027333501259523e+00
3.299601316452026367e+00,2.530432049087530277e+00
3.301601409912109375e+00,2.529636326984921357e+00
3.303602695465087891e+00,2.528607550693458439e+00
3.305601119995117188e+00,2.527430358818812284e+00
3.307601928710937500e+00,2.527767721148457714e+00
3.309601068496704102e+00,2.527299824631193292e+00
3.311600685119628906e+00,2.527540031378272989e+00
3.313600063323974609e+00,2.526750865787370959e+00
3.315600156784057617e+00,2.525868716939534853e+00
3.317600011825561523e+00,2.525908056009776192e+00
3.319600105285644531e+00,2.524288001571655560e+00
3.321603775024414062e+00,2.524268928083053698e+00
3.323601961135864258e+00,2.518550457781608021e+00
3.325599908828735352e+00,2.519291939651005396e+00
3.327599287033081055e+00,2.516257466823752953e+00
3.329599142074584961e+00,2.517985405681777866e+00
3.331600189208984375e+00,2.516795696830236739e+00
3.333598613739013672e+00,2.516271771940204349e+00
3.335606813430786133e+00,2.515114845647197228e+00
3.337597846984863281e+00,2.514727415409971911e+00
3.339598894119262695e+00,2.514375151917356277e+00
3.341598272323608398e+00,2.513694466792877336e+00
3.343599319458007812e+00,2.513099612367106772e+00
3.345597743988037109e+00,2.510538996522306832e+00
3.347598314285278320e+00,2.510631383732722099e+00
3.349597215652465820e+00,2.509903014886738504e+00
3.351597785949707031e+00,2.508492768823238350e+00
3.353597402572631836e+00,2.507433594159316215e+00
3.355597734451293945e+00,2.507117689504347879e+00
3.357596874237060547e+00,2.504813373662635456e+00
3.359597206115722656e+00,2.503519952716821706e+00
3.361596345901489258e+00,2.502504885495291376e+00
3.363601922988891602e+00,2.502854168755312969e+00
3.365593194961547852e+00,2.499520480575618819e+00
3.367596149444580078e+00,2.498980462429578608e+00
3.369596481323242188e+00,2.497952282184634498e+00
3.371596336364746094e+00,2.496927678218803237e+00
3.373595714569091797e+00,2.496444284492049803e+00
3.375595569610595703e+00,2.495458423549941074e+00
3.377594947814941406e+00,2.493581473062214116e+00
3.379595279693603516e+00,2.492046057229764244e+00
3.381594657897949219e+00,2.490436731628982159e+00
3.383595466613769531e+00,2.490244804649925925e+00
3.385594367980957031e+00,2.487877903923738643e+00
3.387594461441040039e+00,2.487608490897237346e+00
3.389594554901123047e+00,2.487100063216693968e+00
3.391596078872680664e+00,2.487054167634745738e+00
3.393594264984130859e+00,2.484182415507127484e+00
3.395594120025634766e+00,2.486031947854989710e+00
3.397631168365478516e+00,2.487163840194206443e+00
3.399621248245239258e+00,2.483790812944270510e+00
3.401601314544677734e+00,2.481479940590851196e+00
3.403598308563232422e+00,2.478692231022385339e+00
3.405593395233154297e+00,2.485456762964339816e+00
3.407594442367553711e+00,2.490307389534400784e+00
3.409599065780639648e+00,2.492574750491947100e+00
3.411594867706298828e+00,2.488895355331344206e+00
3.413593292236328125e+00,2.498300373351618475e+00
3.415593147277832031e+00,2.501866519673647815e+00
3.417592525482177734e+00,2.506044209723974348e+00
3.419591903686523438e+00,2.511301936066381302e+00
3.421592235565185547e+00,2.516907753575772677e+00
3.423592805862426758e+00,2.521947922938814646e+00
3.425591468811035156e+00,2.526030841592650678e+00
3.427591323852539062e+00,2.532407347250860585e+00
3.429591178894042969e+00,2.536610071254977061e+00
3.431591749191284180e+00,2.542228405741262964e+00
3.433590888977050781e+00,2.546665972073789863e+00
3.435590505599975586e+00,2.550230926302782031e+00
3.437591075897216797e+00,2.553231424478462408e+00
3.439590692520141602e+00,2.554827041009311905e+00
3.441590309143066406e+00,2.557493753134459702e+00
3.443590879440307617e+00,2.560218281771931892e+00
3.445588827133178711e+00,2.560532994333862611e+00
3.447590589523315430e+00,2.562195368074818624e+00
3.449589252471923828e+00,2.562346763890595902e+00
3.451589584350585938e+00,2.563308782971952304e+00
3.453589677810668945e+00,2.561542101090204859e+00
3.455589532852172852e+00,2.561862178070804852e+00
3.457589864730834961e+00,2.562278814587451770e+00
3.459588050842285156e+00,2.558986253617555384e+00
3.461588621139526367e+00,2.560543723171201158e+00
3.463588237762451172e+00,2.559619851067048479e+00
3.465587854385375977e+00,2.558413452912980723e+00
3.467587947845458984e+00,2.557514614762617988e+00
3.469587326049804688e+00,2.556274241956978166e+00
3.471588373184204102e+00,2.556358284516130119e+00
3.473587989807128906e+00,2.553969330068746935e+00
3.475589275360107422e+00,2.553081220755722747e+00
3.477587223052978516e+00,2.552074498185455731e+00
3.479587316513061523e+00,2.550882405147839371e+00
3.481586933135986328e+00,2.551404541898315337e+00
3.483587503433227539e+00,2.549941843741160064e+00
3.485586643218994141e+00,2.548874920472493422e+00
3.487586498260498047e+00,2.548871940239899381e+00
3.489586591720581055e+00,2.547114199055934058e+00
3.491585969924926758e+00,2.547805016971232739e+00
3.493586063385009766e+00,2.547344273012194016e+00
3.495585680007934570e+00,2.547425335338751928e+00
3.497586011886596680e+00,2.547689383946583952e+00
3.499586582183837891e+00,2.547863429530075940e+00
3.501585006713867188e+00,2.547321027197960497e+00
3.503585338592529297e+00,2.547701304876960116e+00
3.505585193634033203e+00,2.548891013728501242e+00
3.507585287094116211e+00,2.549579447457724690e+00
3.509584665298461914e+00,2.551257318408169716e+00
3.511584520339965820e+00,2.552815980054853107e+00
3.513584613800048828e+00,2.553899592626046378e+00
3.515584468841552734e+00,2.553887075649151406e+00
3.517584562301635742e+00,2.554064101465237435e+00
3.519583702087402344e+00,2.554250067979105587e+00
3.521590709686279297e+00,2.555351561945863104e+00
3.523583889007568359e+00,2.552523917260637099e+00
3.525583744049072266e+00,2.554227418211390876e+00
3.527583837509155273e+00,2.555801577067563279e+00
3.529583454132080078e+00,2.557910389651106620e+00
3.531584024429321289e+00,2.559941716187204896e+00
3.533582448959350586e+00,2.561284012947560917e+00
3.535583019256591797e+00,2.562797375058814886e+00
3.537582874298095703e+00,2.564094968330260293e+00
3.539582490921020508e+00,2.566709228361752970e+00
3.541582345962524414e+00,2.568252392798947348e+00
3.543582439422607422e+00,2.569894500958263883e+00
3.545582294464111328e+00,2.572045632844642604e+00
3.547581672668457031e+00,2.573290774022432892e+00
3.549581289291381836e+00,2.574848243576078666e+00
3.551581144332885742e+00,2.577579924771776554e+00
3.553580284118652344e+00,2.579451510840834683e+00
3.555581569671630859e+00,2.579296538745944556e+00
3.557580232620239258e+00,2.582153985757110970e+00
3.559580564498901367e+00,2.583905170429369402e+00
3.561580181121826172e+00,2.585617612077905303e+00
3.563580513000488281e+00,2.587470124658361126e+00
3.565581560134887695e+00,2.589271973284718253e+00
3.567580461502075195e+00,2.590791295861160304e+00
3.569580554962158203e+00,2.592162798900937926e+00
3.571579933166503906e+00,2.594053458458597472e+00
3.573581218719482422e+00,2.596228432205728520e+00
3.575578212738037109e+00,2.590568970509644853e+00
3.577576398849487305e+00,2.596510958255643597e+00
3.579580307006835938e+00,2.598191809438682665e+00
3.581579923629760742e+00,2.598530959907884519e+00
3.583579063415527344e+00,2.600308966673489319e+00
3.585579395294189453e+00,2.601879549250548873e+00
3.587578773498535156e+00,2.601433706454480355e+00
3.589578390121459961e+00,2.603012037636284415e+00
3.591578483581542969e+00,2.603925776949617354e+00
3.593577623367309570e+00,2.605508280457053072e+00
3.595578670501708984e+00,2.605908823717692169e+00
3.597576856613159180e+00,2.606333804885602401e+00
3.599578380584716797e+00,2.607490731178609078e+00
3.601577758789062500e+00,2.607850147229450410e+00
3.603577852249145508e+00,2.608399702119791552e+00
3.605576753616333008e+00,2.608466459329898068e+00
3.607577562332153320e+00,2.608422351887506263e+00
3.609577178955078125e+00,2.609124494686662299e+00
3.611576795578002930e+00,2.608793688868723759e+00
3.613575935363769531e+00,2.608757926077595268e+00
3.615576505661010742e+00,2.608126712814177406e+00
3.617576122283935547e+00,2.608091546069567723e+00
3.619576215744018555e+00,2.608300758397669394e+00
3.621575355529785156e+00,2.607813192345284303e+00
3.623575925827026367e+00,2.607692790948485051e+00
3.625575304031372070e+00,2.606855345589559558e+00
3.627575397491455078e+00,2.605988693951212465e+00
3.629575729370117188e+00,2.605901075112947662e+00
3.631575345993041992e+00,2.605276418361236690e+00
3.633575201034545898e+00,2.603470397409247905e+00
3.635574579238891602e+00,2.601978492972671031e+00
3.637574672698974609e+00,2.601078462729270679e+00
3.639575004577636719e+00,2.599597287130032353e+00
3.641573905944824219e+00,2.597861003620744125e+00
3.643574237823486328e+00,2.596840571980544521e+00
3.645574569702148438e+00,2.594540428464463755e+00
3.647573709487915039e+00,2.592280816111661945e+00
3.649573326110839844e+00,2.591078590283225846e+00
3.651573657989501953e+00,2.589313100494516018e+00
3.653572797775268555e+00,2.587631653264958143e+00
3.655573606491088867e+00,2.585603903007972715e+00
3.657572746276855469e+00,2.582546780413005560e+00
3.659572601318359375e+00,2.581758210868622339e+00
3.661572933197021484e+00,2.579753110379351622e+00
3.663572788238525391e+00,2.577172228952911759e+00
3.665573358535766602e+00,2.575396010326863383e+00
3.667572021484375000e+00,2.572231599358510756e+00
3.669572830200195312e+00,2.570336767475219553e+00
3.671572685241699219e+00,2.568143912332524259e+00
3.673572540283203125e+00,2.566519685568771969e+00
3.675572395324707031e+00,2.564406104613078163e+00
3.677571296691894531e+00,2.562332458774144506e+00
3.679571628570556641e+00,2.560273714098181053e+00
3.681571483612060547e+00,2.557912177790663044e+00
3.683571100234985352e+00,2.557193941735499187e+00
3.685571432113647461e+00,2.554583257983119360e+00
3.687570095062255859e+00,2.552610344005864285e+00
3.689569950103759766e+00,2.550282186303399534e+00
3.691570281982421875e+00,2.548587030003909071e+00
3.693569660186767578e+00,2.547520702781761237e+00
3.695570468902587891e+00,2.546062772996755985e+00
3.697569847106933594e+00,2.545005386472390274e+00
3.699569702148437500e+00,2.544129198089742250e+00
3.701569795608520508e+00,2.543557589478205205e+00
3.703569650650024414e+00,2.543010418773939296e+00
3.705569982528686523e+00,2.542227809694744156e+00
3.707569360733032227e+00,2.541869585736940440e+00
3.709568500518798828e+00,2.541253273636492782e+00
3.711569309234619141e+00,2.540406887579785167e+00
3.713568210601806641e+00,2.539853756410331176e+00
3.715568304061889648e+00,2.540307943857663009e+00
3.717567920684814453e+00,2.541181748054235801e+00
3.719568729400634766e+00,2.540192906879533030e+00
3.721567630767822266e+00,2.540332381764934144e+00
3.723572254180908203e+00,2.539838855247360971e+00
3.725568294525146484e+00,2.538384501741469013e+00
3.727570056915283203e+00,2.537946407550145000e+00
3.729566574096679688e+00,2.538575832674006438e+00
3.731567621231079102e+00,2.539979522225799702e+00
3.733566522598266602e+00,2.539738123385682389e+00
3.735567808151245117e+00,2.541429107359541195e+00
3.737566709518432617e+00,2.540917699446403777e+00
3.739566564559936523e+00,2.542857830865124402e+00
3.741566181182861328e+00,2.542809551097100940e+00
3.743566036224365234e+00,2.542835181097409691e+00
3.745566606521606445e+00,2.543746536224667398e+00
3.747565746307373047e+00,2.542437022022845827e+00
3.749565839767456055e+00,2.543093269240053633e+00
3.751565933227539062e+00,2.543486063895948224e+00
3.753564834594726562e+00,2.542954986447690136e+00
3.755565166473388672e+00,2.543032472495135199e+00
3.757565498352050781e+00,2.541665141780989234e+00
3.759565114974975586e+00,2.541683619223072288e+00
3.761564254760742188e+00,2.541241948752635427e+00
3.763565301895141602e+00,2.541464870150669686e+00
3.765565156936645508e+00,2.542062704809034290e+00
3.767563819885253906e+00,2.541228239682702839e+00
3.769563913345336914e+00,2.542202775740954213e+00
3.771564483642578125e+00,2.542663519699992936e+00
3.773564100265502930e+00,2.542364900394070037e+00
3.775562763214111328e+00,2.543404405522871503e+00
3.777563095092773438e+00,2.543323343196313591e+00
3.779563903808593750e+00,2.544169133206502398e+00
3.781562805175781250e+00,2.544203107858074464e+00
3.783563375473022461e+00,2.545035784844849491e+00
3.785562753677368164e+00,2.545883362994594723e+00
3.787562370300292969e+00,2.545330231825140732e+00
3.789562225341796875e+00,2.546581333468119102e+00
3.791561841964721680e+00,2.547184532545153424e+00
3.793561697006225586e+00,2.547434276036534051e+00
3.795564174652099609e+00,2.546359008116603651e+00
3.797561883926391602e+00,2.547056382543609665e+00
3.799561738967895508e+00,2.546662991841195822e+00
3.801561594009399414e+00,2.546238010673285590e+00
3.803571224212646484e+00,2.547412222315338148e+00
3.805563449859619141e+00,2.547505801618791033e+00
3.807560920715332031e+00,2.546137278811607008e+00
3.809560537338256836e+00,2.546387618349506443e+00
3.811560153961181641e+00,2.545689647875982065e+00
3.813560247421264648e+00,2.545956676716408129e+00
3.815560817718505859e+00,2.544687693677865514e+00
3.817560195922851562e+00,2.544447486930785818e+00
3.819560766220092773e+00,2.543784683201871122e+00
3.821559667587280273e+00,2.543029492262541158e+00
3.823559999465942383e+00,2.543718522038283414e+00
3.825560092926025391e+00,2.542869751795500566e+00
3.827559471130371094e+00,2.540634577349969891e+00
3.829559326171875000e+00,2.541038100843203029e+00
3.831559181213378906e+00,2.540357415718724088e+00
3.833558797836303711e+00,2.540697162234444750e+00
3.835559606552124023e+00,2.540427749207943453e+00
3.837558269500732422e+00,2.540537421767404158e+00
3.839558362960815430e+00,2.539886538968865626e+00
3.841558218002319336e+00,2.539475266870887982e+00
3.843558073043823242e+00,2.539887135015384434e+00
3.845558166503906250e+00,2.539937798969483129e+00
3.847557544708251953e+00,2.539007966400142369e+00
3.849557399749755859e+00,2.539537851755362841e+00
3.851557493209838867e+00,2.539020483377037340e+00
3.853556394577026367e+00,2.538421456625635120e+00
3.855557680130004883e+00,2.538545434301547221e+00
3.857556343078613281e+00,2.538805906630266396e+00
3.859556913375854492e+00,2.537427251032263076e+00
3.861556529998779297e+00,2.537882630572632525e+00
3.863556385040283203e+00,2.537207905913341666e+00
3.865556716918945312e+00,2.536641065673955087e+00
3.867556095123291016e+00,2.536112372411772231e+00
3.869556188583374023e+00,2.536522452416712259e+00
3.871556282043457031e+00,2.535676066360004643e+00
3.873555660247802734e+00,2.535570566126175596e+00
3.875555515289306641e+00,2.535089556585497395e+00
3.877554893493652344e+00,2.535396520542683607e+00
3.879555463790893555e+00,2.534783188674829990e+00
3.881554603576660156e+00,2.534079257736117530e+00
3.883555650711059570e+00,2.534066740759222558e+00
3.885554790496826172e+00,2.532862726791230035e+00
3.887554883956909180e+00,2.532566491671382369e+00
3.889554023742675781e+00,2.532328669110377906e+00
3.891554832458496094e+00,2.532620135858075106e+00
3.893554210662841797e+00,2.531644407706786115e+00
3.895553827285766602e+00,2.531158033747438640e+00
3.897553682327270508e+00,2.531439367704316101e+00
3.899553775787353516e+00,2.531564537473265819e+00
3.901553630828857422e+00,2.531935874454483315e+00
3.903553247451782227e+00,2.530796829557040883e+00
3.905553340911865234e+00,2.530876699790561180e+00
3.907552957534790039e+00,2.530322376528069572e+00
3.909553050994873047e+00,2.530069056757576096e+00
3.911552906036376953e+00,2.531013790489887061e+00
3.913552522659301758e+00,2.531021539094631567e+00
3.915552377700805664e+00,2.531082335839550002e+00
3.917551517486572266e+00,2.529880110011113903e+00
3.919551372528076172e+00,2.529823485591827126e+00
3.921551227569580078e+00,2.530672255834609974e+00
3.923553466796875000e+00,2.530001703500950772e+00
3.925552368164062500e+00,2.528863254650027148e+00
3.927551984786987305e+00,2.529031339768331055e+00
3.929551362991333008e+00,2.529406849075180208e+00
3.931551694869995117e+00,2.530183497689187266e+00
3.933551311492919922e+00,2.530029121640815948e+00
3.935551166534423828e+00,2.530080381641433451e+00
3.937550067901611328e+00,2.530332509318889311e+00
3.939550399780273438e+00,2.531164590259145530e+00
3.941549777984619141e+00,2.531836930732361157e+00
3.943550109863281250e+00,2.531938854687077356e+00
3.945550441741943359e+00,2.532621923997631530e+00
3.947549581527709961e+00,2.532561127252713096e+00
3.949549674987792969e+00,2.533603612614108602e+00
3.951549530029296875e+00,2.534206811691142480e+00
3.953548908233642578e+00,2.533886734710542488e+00
3.955549716949462891e+00,2.534985248444705963e+00
3.957549333572387695e+00,2.535656396824883974e+00
3.959548711776733398e+00,2.535900775897595327e+00
3.961548328399658203e+00,2.535276715192403163e+00
3.963548183441162109e+00,2.536588017533781159e+00
3.965548753738403320e+00,2.537591759871454133e+00
3.967548131942749023e+00,2.536766235442904804e+00
3.969548225402832031e+00,2.537941043131475727e+00
3.971631288528442383e+00,2.538674776396128596e+00
3.975297927856445312e+00,2.534764711232746937e+00
3.979442119598388672e+00,2.554254836351256053e+00
3.983438491821289062e+00,2.566722937431685558e+00
3.987441301345825195e+00,2.616390897797453263e+00
3.991437673568725586e+00,2.585174153467912017e+00
3.995439529418945312e+00,2.592615198208713334e+00
3.999438762664794922e+00,2.599296283638034222e+00
4.003437519073486328e+00,2.603590202759528349e+00
4.007438659667968750e+00,2.607897234904436257e+00
4.011437177658081055e+00,2.611433578900525632e+00
4.015435695648193359e+00,2.652657944280856217e+00
4.019435405731201172e+00,2.654108721507635327e+00
4.023434638977050781e+00,2.653661090572010384e+00
4.027437448501586914e+00,2.653125840798120638e+00
4.031435012817382812e+00,2.652175146600621591e+00
4.035435199737548828e+00,2.651261407287288652e+00
4.039433479309082031e+00,2.609539343063753236e+00
4.043434143066406250e+00,2.607604576063701440e+00
4.047436952590942383e+00,2.604199958348269117e+00
4.051434278488159180e+00,2.601676893434154092e+00
4.055433511734008789e+00,2.598456454093033496e+00
4.059432029724121094e+00,2.593073557981676824e+00
4.063434123992919922e+00,2.588005374432250871e+00
4.067441940307617188e+00,2.584266970666285967e+00
4.071706295013427734e+00,2.605299664175470209e+00
4.075785398483276367e+00,2.546107476485666599e+00
4.080146551132202148e+00,2.535345856588584912e+00
4.085067033767700195e+00,2.515007557273811756e+00
4.089987516403198242e+00,2.495763599367570862e+00
4.094958782196044922e+00,2.492758332819740019e+00
4.099902391433715820e+00,2.486649452048474984e+00
4.104959964752197266e+00,2.481094894539701112e+00
4.109891653060913086e+00,2.475288805399990633e+00
4.114913225173950195e+00,2.473044094210159027e+00
4.119891881942749023e+00,2.469973858591778093e+00
4.124940633773803711e+00,2.469995316266455188e+00
4.129918813705444336e+00,2.467591460656101798e+00
4.134944677352905273e+00,2.473758157939691227e+00
4.140034675598144531e+00,2.478363809390522032e+00
4.145056724548339844e+00,2.484676538071219909e+00
4.149981975555419922e+00,2.483751473874029170e+00
4.154980659484863281e+00,2.536949817770697724e+00
4.159978866577148438e+00,2.509690822326042792e+00
4.164966583251953125e+00,2.517788114284052359e+00
4.170047998428344727e+00,2.520096006404877631e+00
4.174971342086791992e+00,2.526878419742395909e+00
4.177552938461303711e+00,2.547977274415168303e+00
4.179529666900634766e+00,2.543825810411668886e+00
4.181528091430664062e+00,2.542346422951986984e+00
4.183528661727905273e+00,2.541718189921163162e+00
4.185527324676513672e+00,2.539373342916171783e+00
4.187533617019653320e+00,2.539031212214375888e+00
4.189528465270996094e+00,2.533802692151390534e+00
4.191531181335449219e+00,2.534455959136004299e+00
4.193527460098266602e+00,2.530071440943651329e+00
4.195526838302612305e+00,2.528112236036328841e+00
4.197526454925537109e+00,2.514776887271032990e+00
4.199526309967041016e+00,2.507833541373436503e+00
4.201525211334228516e+00,2.502202689910255629e+00
4.203525304794311523e+00,2.496432959608192448e+00
4.205525159835815430e+00,2.490822373726651051e+00
4.207530260086059570e+00,2.485453782731745775e+00
4.209526300430297852e+00,2.478656468231256849e+00
4.211526870727539062e+00,2.474661168415685619e+00
4.213525056838989258e+00,2.472548183506510622e+00
4.215526580810546875e+00,2.471087273488911773e+00
4.217524290084838867e+00,2.467317875303968844e+00
4.219530344009399414e+00,2.467023428323677603e+00
4.221527814865112305e+00,2.462483341989915697e+00
4.223526239395141602e+00,2.464645798760151774e+00
4.225527286529541016e+00,2.462978656647045295e+00
4.227529525756835938e+00,2.460527713361706059e+00
4.229529857635498047e+00,2.457025940063708003e+00
4.231526374816894531e+00,2.457380587742398870e+00
4.233525514602661133e+00,2.457030112389339660e+00
4.235526323318481445e+00,2.456795866107448045e+00
4.237525463104248047e+00,2.455739671676119951e+00
4.239525556564331055e+00,2.456583673546752333e+00
4.241524457931518555e+00,2.455877954468483448e+00
4.243525505065917969e+00,2.455361778183195565e+00
4.245523691177368164e+00,2.455373103067052920e+00
4.247527122497558594e+00,2.456146175401947129e+00
4.249524354934692383e+00,2.455518538417642116e+00
4.251524209976196289e+00,2.457672054490096070e+00
4.253524065017700195e+00,2.458359892172800709e+00
4.255524873733520508e+00,2.460815603830290410e+00
4.257524013519287109e+00,2.462082202682757792e+00
4.259523868560791016e+00,2.461675698956930614e+00
4.261523246765136719e+00,2.461328799882984253e+00
4.263523340225219727e+00,2.459556157536048726e+00
4.265522718429565430e+00,2.457998091935884144e+00
4.267525434494018555e+00,2.455410653997737835e+00
4.269523620605468750e+00,2.453773910257090574e+00
4.271522521972656250e+00,2.454117829098442893e+00
4.273522615432739258e+00,2.453101569783874503e+00
4.275522708892822266e+00,2.452298695123039884e+00
4.277522087097167969e+00,2.452683741174189969e+00
4.279520988464355469e+00,2.453471714672054826e+00
4.281519174575805664e+00,2.463567550607627776e+00
4.283554077148437500e+00,2.468347247641950570e+00
4.286185026168823242e+00,2.491090594660114732e+00
4.288561105728149414e+00,2.446171336909691796e+00
4.290530204772949219e+00,2.461759741516082567e+00
4.292557477951049805e+00,2.467895444380693970e+00
4.294535398483276367e+00,2.450650626498535267e+00
4.296516418457031250e+00,2.470175322315135258e+00
4.298520803451538086e+00,2.475332912842382438e+00
4.300519227981567383e+00,2.478874025210621834e+00
4.302520990371704102e+00,2.484080491552411285e+00
4.304518699645996094e+00,2.490498720466938209e+00
4.306519269943237305e+00,2.496830522636237504e+00
4.308519363403320312e+00,2.498666941960685506e+00
4.310518741607666016e+00,2.502643168287654873e+00
4.312516927719116211e+00,2.506043613677455539e+00
4.314518928527832031e+00,2.509855927211752658e+00
4.316517114639282227e+00,2.513688506327689254e+00
4.318519353866577148e+00,2.517097892415272486e+00
4.320517063140869141e+00,2.519452872211083605e+00
4.322536468505859375e+00,2.523057761556835477e+00
4.324539661407470703e+00,2.521735134331600126e+00
4.326516628265380859e+00,2.527209225560334449e+00
4.328516483306884766e+00,2.528695169531723241e+00
4.330517292022705078e+00,2.530935708395923189e+00
4.332515954971313477e+00,2.533986870525702262e+00
4.334514856338500977e+00,2.536910478700456384e+00
4.336516141891479492e+00,2.539015715004886875e+00
4.338516950607299805e+00,2.544033830646732941e+00
4.340517520904541016e+00,2.544728224841144471e+00
4.342519044876098633e+00,2.546839421610763043e+00
4.344516992568969727e+00,2.548470204886222668e+00
4.346518516540527344e+00,2.549074000009775354e+00
4.348528146743774414e+00,2.551802700972879201e+00
4.350517272949218750e+00,2.551774686786495216e+00
4.352517843246459961e+00,2.554695910775174106e+00
4.354516744613647461e+00,2.555542892878400529e+00
4.356514453887939453e+00,2.557722634997682043e+00
4.358516931533813477e+00,2.558598227333811259e+00
4.360515594482421875e+00,2.560351796192144924e+00
4.362516641616821289e+00,2.561630315974988470e+00
4.364514827728271484e+00,2.561754889697419380e+00
4.366516351699829102e+00,2.564013906003702381e+00
4.368513822555541992e+00,2.563628263906033489e+00
4.370516777038574219e+00,2.564689822756030857e+00
4.372513771057128906e+00,2.566209145332472907e+00
4.374516010284423828e+00,2.567559190697573435e+00
4.376518249511718750e+00,2.569138713972415111e+00
4.378515243530273438e+00,2.569828339794676175e+00
4.380513429641723633e+00,2.570370742126791619e+00
4.382515192031860352e+00,2.571618863537175947e+00
4.384513378143310547e+00,2.571804830051044100e+00
4.386514902114868164e+00,2.573330709139193040e+00
4.388511896133422852e+00,2.574011394263671981e+00
4.390513658523559570e+00,2.574004241705446283e+00
4.392512321472167969e+00,2.574477502641379978e+00
4.394514083862304688e+00,2.575733968703027621e+00
4.396512031555175781e+00,2.576869437321357204e+00
4.398549795150756836e+00,2.577081629882052916e+00
4.400519847869873047e+00,2.558030791047905872e+00
4.402514219284057617e+00,2.572523066106207956e+00
4.404512405395507812e+00,2.572315641917662710e+00
4.406513214111328125e+00,2.573929735890595261e+00
4.408511877059936523e+00,2.573528000536918547e+00
4.410511493682861328e+00,2.574896523344102128e+00
4.412511348724365234e+00,2.574637243108420570e+00
4.414511680603027344e+00,2.576855728251424615e+00
4.416513681411743164e+00,2.577479192910097971e+00
4.418513059616088867e+00,2.578244516640248118e+00
4.420511245727539062e+00,2.579405019212367645e+00
4.422512054443359375e+00,2.580082724104252545e+00
4.424510240554809570e+00,2.580737183181903927e+00
4.426511764526367188e+00,2.581065604813767234e+00
4.428509473800659180e+00,2.580789635275559046e+00
4.430511474609375000e+00,2.580935070626148242e+00
4.432508468627929688e+00,2.581003615975811183e+00
4.434510231018066406e+00,2.581289122258320301e+00
4.436509370803833008e+00,2.583160708327377986e+00
4.438510179519653320e+00,2.583812187172435326e+00
4.440508127212524414e+00,2.584872553929395078e+00
4.442510366439819336e+00,2.585441778354856890e+00
4.444507598876953125e+00,2.585371444865637525e+00
4.446509361267089844e+00,2.584865997417688188e+00
4.448507308959960938e+00,2.583722184148095291e+00
4.450509071350097656e+00,2.582570622273757888e+00
4.452507019042968750e+00,2.581293890630470766e+00
4.454509019851684570e+00,2.580643007831932234e+00
4.456507444381713867e+00,2.580802748298972826e+00
4.458508253097534180e+00,2.580866525276485302e+00
4.460506677627563477e+00,2.580550024574998158e+00
4.462508201599121094e+00,2.580001065731175824e+00
4.464506149291992188e+00,2.579876492008744915e+00
4.466508388519287109e+00,2.579800794100856276e+00
4.468505859375000000e+00,2.578873345717590748e+00
4.470507621765136719e+00,2.576706120575203762e+00
4.472505807876586914e+00,2.577239582209537083e+00
4.474507808685302734e+00,2.577038118486179918e+00
4.476506948471069336e+00,2.575658270795138982e+00
4.478508234024047852e+00,2.577767083378682322e+00
4.480505228042602539e+00,2.578513929666749416e+00
4.482526302337646484e+00,2.579067060836203407e+00
4.484552145004272461e+00,2.576149413126636922e+00
4.486546993255615234e+00,2.563475079950699786e+00
4.488505125045776367e+00,2.562814660407860323e+00
4.490563869476318359e+00,2.567878075585135811e+00
4.492545843124389648e+00,2.537145917075385615e+00
4.494514465332031250e+00,2.544915383448050239e+00
4.496505498886108398e+00,2.560766644569235417e+00
4.498504400253295898e+00,2.564319677867850977e+00
4.500503778457641602e+00,2.565148182528994347e+00
4.502503156661987305e+00,2.568324514427723138e+00
4.504499673843383789e+00,2.569322892346726839e+00
4.506502628326416016e+00,2.572572537967269035e+00
4.508502960205078125e+00,2.572365113778723789e+00
4.510503768920898438e+00,2.574458429152778116e+00
4.512501001358032227e+00,2.575574824282505837e+00
4.514502763748168945e+00,2.577217528488341181e+00
4.516501188278198242e+00,2.579478928980699859e+00
4.518502950668334961e+00,2.582246969014045046e+00
4.520500659942626953e+00,2.583911726941076292e+00
4.522723436355590820e+00,2.586133788363193187e+00
4.524604320526123047e+00,2.587977956292385695e+00
4.526499748229980469e+00,2.590167235155968140e+00
4.528499126434326172e+00,2.594325851717692810e+00
4.530499458312988281e+00,2.597455095941435754e+00
4.532498359680175781e+00,2.600208234811810737e+00
4.534499168395996094e+00,2.602578115770592060e+00
4.536500930786132812e+00,2.604074788579319399e+00
4.538500547409057617e+00,2.607754183739922293e+00
4.540501117706298828e+00,2.609103633058504013e+00
4.542500972747802734e+00,2.613554312414445135e+00
4.544498682022094727e+00,2.614944292896305811e+00
4.546500444412231445e+00,2.617712332929650998e+00
4.548498630523681641e+00,2.619161918063392491e+00
4.550499677658081055e+00,2.619511797369932893e+00
4.552497625350952148e+00,2.621591999720573440e+00
4.554499864578247070e+00,2.622787072990783841e+00
4.556497573852539062e+00,2.623455241138367811e+00
4.558500051498413086e+00,2.624982312319554367e+00
4.560497522354125977e+00,2.625093176972052689e+00
4.562500476837158203e+00,2.625004366040750270e+00
4.564496040344238281e+00,2.624870255574018429e+00
4.566498756408691406e+00,2.624571040221576723e+00
4.568495988845825195e+00,2.623249009042860180e+00
4.570498704910278320e+00,2.620889260874898596e+00
4.572496414184570312e+00,2.618245198517465511e+00
4.574497938156127930e+00,2.617860748512834235e+00
4.576496362686157227e+00,2.616138770119997403e+00
4.578501224517822266e+00,2.614511563123651072e+00
4.580495834350585938e+00,2.611054493314563629e+00
4.582497835159301758e+00,2.609842134695307792e+00
4.584495544433593750e+00,2.607294035827402379e+00
4.586497068405151367e+00,2.605512452782684729e+00
4.588495016098022461e+00,2.604514074863681028e+00
4.590496778488159180e+00,2.601651859480364148e+00
4.592494964599609375e+00,2.600339961092467345e+00
4.594496250152587891e+00,2.599242043404822677e+00
4.596493959426879883e+00,2.597177934310189951e+00
4.598496675491333008e+00,2.596236776856991835e+00
4.600495815277099609e+00,2.594640564279623529e+00
4.602496147155761719e+00,2.594227504042089461e+00
4.604493856430053711e+00,2.592559765882464173e+00
4.606495857238769531e+00,2.591082762608857504e+00
4.608492851257324219e+00,2.590802620745017659e+00
4.610494852066040039e+00,2.588019679548702268e+00
4.612493038177490234e+00,2.587878416523744729e+00
4.614495515823364258e+00,2.587415884425149581e+00
4.616493225097656250e+00,2.586644600229811797e+00
4.618494987487792969e+00,2.586441944413417016e+00
4.620491981506347656e+00,2.586366842552047185e+00
4.622494459152221680e+00,2.586350749296039364e+00
4.624491930007934570e+00,2.586983750699013651e+00
4.626494646072387695e+00,2.587582181403897064e+00
4.628491640090942383e+00,2.587762783499095942e+00
4.630493879318237305e+00,2.587710331405440822e+00
4.632491111755371094e+00,2.588963221187975616e+00
4.634492874145507812e+00,2.590158890504704825e+00
4.636491537094116211e+00,2.591022561910457878e+00
4.638493061065673828e+00,2.591550063079603117e+00
4.640857696533203125e+00,2.592699836814384096e+00
4.643495559692382812e+00,2.539303009426952418e+00
4.645490646362304688e+00,2.572633334712187470e+00
4.647490501403808594e+00,2.574470350083154280e+00
4.649488687515258789e+00,2.575142690556369907e+00
4.651488780975341797e+00,2.576695987784384023e+00
4.653487682342529297e+00,2.576802680111250687e+00
4.655489206314086914e+00,2.578126499429524099e+00
4.657488107681274414e+00,2.579002091765653315e+00
4.659489154815673828e+00,2.579473564562030585e+00
4.661487340927124023e+00,2.580864141090410069e+00
4.663489341735839844e+00,2.582112262500794397e+00
4.665491819381713867e+00,2.581038186673902057e+00
4.667490005493164062e+00,2.583351443213396603e+00
4.669488430023193359e+00,2.583467076238045390e+00
4.671489477157592773e+00,2.584173987409351891e+00
4.673486709594726562e+00,2.583763907404411864e+00
4.675487995147705078e+00,2.585442970447894506e+00
4.677486658096313477e+00,2.586054514176191699e+00
4.679491281509399414e+00,2.587814043499713446e+00
4.681490182876586914e+00,2.588898848163944333e+00
4.683490276336669922e+00,2.589950870269640770e+00
4.685489892959594727e+00,2.590951036328200896e+00
4.687489986419677734e+00,2.592405985880611663e+00
4.689489364624023438e+00,2.592791627978280555e+00
4.691488265991210938e+00,2.594650101023924460e+00
4.693486213684082031e+00,2.596671294769202998e+00
4.695486307144165039e+00,2.597918820133068518e+00
4.697484970092773438e+00,2.599062633402661415e+00
4.699504137039184570e+00,2.601691198550605488e+00
4.701478958129882812e+00,2.601938557855910883e+00
4.703487634658813477e+00,2.604629707888329815e+00
4.705487251281738281e+00,2.606240225582149517e+00
4.707487344741821289e+00,2.607884717927541285e+00
4.709486961364746094e+00,2.609691334926049322e+00
4.711487531661987305e+00,2.611392451690727867e+00
4.713487148284912109e+00,2.613453580552766553e+00
4.715487003326416016e+00,2.615085555921263349e+00
4.717486381530761719e+00,2.616215660120923658e+00
4.719486713409423828e+00,2.617979957816595871e+00
4.721486091613769531e+00,2.619487955509180566e+00
4.723500967025756836e+00,2.622380569264956662e+00
4.725485563278198242e+00,2.617802335953991033e+00
4.727483510971069336e+00,2.623461201603555892e+00
4.729484558105468750e+00,2.624167516728343585e+00
4.731482744216918945e+00,2.624304011381150659e+00
4.733481168746948242e+00,2.624856546504085841e+00
4.735481977462768555e+00,2.626250103265059366e+00
4.737480878829956055e+00,2.626726940480105910e+00
4.739484548568725586e+00,2.626379445359640741e+00
4.741483926773071289e+00,2.625895455586368499e+00
4.743489027023315430e+00,2.626841381411717080e+00
4.745483636856079102e+00,2.626326993265985621e+00
4.747483491897583008e+00,2.626625612571908519e+00
4.749483585357666016e+00,2.626693561875052652e+00
4.751483678817749023e+00,2.625713661398132004e+00
4.753483295440673828e+00,2.626414612104250423e+00
4.755483150482177734e+00,2.625003173947712654e+00
4.757482528686523438e+00,2.624821379759476159e+00
4.759482860565185547e+00,2.624107912076462767e+00
4.761482238769531250e+00,2.622931912294854229e+00
4.763482570648193359e+00,2.623057678110322755e+00
4.765482187271118164e+00,2.621540739719955937e+00
4.767482042312622070e+00,2.620908334363500458e+00
4.769481420516967773e+00,2.619703128302470319e+00
4.771481752395629883e+00,2.618957474107441286e+00
4.773481369018554688e+00,2.618174268981727337e+00
4.775481224060058594e+00,2.615015222432043984e+00
4.777481079101562500e+00,2.615511133135692390e+00
4.779480934143066406e+00,2.615018798711156833e+00
4.781481027603149414e+00,2.612948729151336025e+00
4.783481121063232422e+00,2.611416293551480194e+00
4.785480260848999023e+00,2.609858823997834421e+00
4.787480354309082031e+00,2.608779979798791171e+00
4.789480447769165039e+00,2.607065153964180038e+00
4.791478872299194336e+00,2.605434966735239666e+00
4.793478488922119141e+00,2.603803587413261678e+00
4.795479297637939453e+00,2.601784181807539564e+00
4.797479391098022461e+00,2.599618744804709447e+00
4.799479961395263672e+00,2.598654341537277812e+00
4.801479339599609375e+00,2.596437048487311383e+00
4.803478240966796875e+00,2.594421815207220927e+00
4.805478096008300781e+00,2.592472147044199371e+00
4.807478427886962891e+00,2.591233562378115973e+00
4.809477567672729492e+00,2.588753412813355137e+00
4.811478137969970703e+00,2.586171935340396910e+00
4.813477277755737305e+00,2.584526846948486334e+00
4.815478324890136719e+00,2.582415650178867761e+00
4.817477226257324219e+00,2.579546282237325183e+00
4.819477796554565430e+00,2.577618667795499086e+00
4.821477413177490234e+00,2.575391241954712918e+00
4.823477268218994141e+00,2.573269316347755797e+00
4.825476884841918945e+00,2.570684262595684721e+00
4.827477216720581055e+00,2.567851253491789443e+00
4.829476356506347656e+00,2.565029569271751519e+00
4.831475973129272461e+00,2.562290735517827933e+00
4.833475828170776367e+00,2.558567232914833234e+00
4.835476875305175781e+00,2.555287188921831820e+00
4.837475776672363281e+00,2.552082842836719045e+00
4.839476585388183594e+00,2.547378843710284890e+00
4.841475248336791992e+00,2.545330827871659540e+00
4.843475341796875000e+00,2.540843193631552754e+00
4.845474720001220703e+00,2.537491624056294359e+00
4.847475767135620117e+00,2.533605996800183835e+00
4.849474906921386719e+00,2.529920045127874051e+00
4.851475715637207031e+00,2.525598707866514747e+00
4.853474140167236328e+00,2.522960605974269743e+00
4.855474472045898438e+00,2.520743312924303314e+00
4.857475757598876953e+00,2.518623175456902619e+00
4.859474420547485352e+00,2.516242565660782748e+00
4.861474037170410156e+00,2.515940966122265809e+00
4.863473653793334961e+00,2.515335382859156255e+00
4.865473747253417969e+00,2.514825167039056453e+00
4.867527961730957031e+00,2.515001000762104866e+00
4.869531393051147461e+00,2.482455072695621379e+00
4.871487617492675781e+00,2.485142050402409097e+00
4.873474836349487305e+00,2.503181994340657468e+00
4.875594139099121094e+00,2.506162822981217175e+00
4.877528190612792969e+00,2.495484053550249826e+00
4.879474163055419922e+00,2.507490218578602992e+00
4.881472826004028320e+00,2.509956659073431240e+00
4.883472681045532227e+00,2.513041795854782379e+00
4.885471343994140625e+00,2.515795530771676614e+00
4.887472391128540039e+00,2.518371047779446759e+00
4.889471769332885742e+00,2.519079151043790876e+00
4.891472339630126953e+00,2.520159783382390106e+00
4.893471002578735352e+00,2.523342671792825787e+00
4.895471572875976562e+00,2.524224224594143084e+00
4.897471666336059570e+00,2.524148526686254446e+00
4.899471998214721680e+00,2.524231377152368783e+00
4.901473045349121094e+00,2.522774043413882783e+00
4.903471469879150391e+00,2.520957889671074259e+00
4.905470609664916992e+00,2.517776193353676195e+00
4.907470703125000000e+00,2.514968814250089224e+00
4.909470558166503906e+00,2.512678803524828197e+00
4.911469936370849609e+00,2.507102192294858867e+00
4.913469314575195312e+00,2.505030930642000442e+00
4.915469884872436523e+00,2.502138912932743153e+00
4.917472600936889648e+00,2.499287426386764821e+00
4.919469833374023438e+00,2.497953474277672115e+00
4.921469688415527344e+00,2.495956122393145904e+00
