time_s,voltage_v
1.957893371582031250e-03,2.450560027427676424e+00
3.943920135498046875e-03,2.443087988267897082e+00
5.967617034912109375e-03,2.444235973863121636e+00
7.985591888427734375e-03,2.436487369118615298e+00
9.958267211914062500e-03,2.414334108154071235e+00
1.192545890808105469e-02,2.432045034413937934e+00
1.393032073974609375e-02,2.435862116320385518e+00
1.592755317687988281e-02,2.437331967035766489e+00
1.792931556701660156e-02,2.438286833558897193e+00
1.992821693420410156e-02,2.438538365189834245e+00
2.192902565002441406e-02,2.439486675201258059e+00
2.392721176147460938e-02,2.440296702420318375e+00
2.596330642700195312e-02,2.441093020569446104e+00
2.798175811767578125e-02,2.428355506462515301e+00
2.995753288269042969e-02,2.422273447784596634e+00
3.198289871215820312e-02,2.429742506711781935e+00
3.398728370666503906e-02,2.418990423559000735e+00
3.600454330444335938e-02,2.419370701238000354e+00
3.791165351867675781e-02,2.408791471575673970e+00
4.000043869018554688e-02,2.409121085300574894e+00
4.191827774047851562e-02,2.398342776100966578e+00
4.399442672729492188e-02,2.402717757549018618e+00
4.599356651306152344e-02,2.383420155456084544e+00
4.800868034362792969e-02,2.386427210143471811e+00
4.999995231628417969e-02,2.387649701553547388e+00
5.189824104309082031e-02,2.371384784148309777e+00
5.395889282226562500e-02,2.391501950204605098e+00
5.594730377197265625e-02,2.386033819441058412e+00
5.794286727905273438e-02,2.384771988960741496e+00
5.994272232055664062e-02,2.387516187133334356e+00
6.194353103637695312e-02,2.392610596729588313e+00
6.394457817077636719e-02,2.391156839270215162e+00
6.600832939147949219e-02,2.389405654597956286e+00
6.799793243408203125e-02,2.366683765254469662e+00
6.995797157287597656e-02,2.366565748043745643e+00
7.200527191162109375e-02,2.387180612943245350e+00
7.396316528320312500e-02,2.369745656221587282e+00
7.596302032470703125e-02,2.378697082841048527e+00
7.794380187988281250e-02,2.399112272156747938e+00
7.994365692138671875e-02,2.401537585441778422e+00
8.194231986999511719e-02,2.409926344147484745e+00
8.395195007324218750e-02,2.415008236766843286e+00
8.594632148742675781e-02,2.419994761943192518e+00
8.794116973876953125e-02,2.426413586904238251e+00
8.994269371032714844e-02,2.431398919987549867e+00
9.194207191467285156e-02,2.436877183541915848e+00
9.394216537475585938e-02,2.441111498011529157e+00
9.594178199768066406e-02,2.446215444352083601e+00
9.794235229492187500e-02,2.450728708592499139e+00
9.995245933532714844e-02,2.455236012367727039e+00
1.019520759582519531e-01,2.449971729513612750e+00
1.039447784423828125e-01,2.460896070110329514e+00
1.059443950653076172e-01,2.463678415260126098e+00
1.079382896423339844e-01,2.467795904612053004e+00
1.099414825439453125e-01,2.471920546522205608e+00
1.119434833526611328e-01,2.473981079337725486e+00
1.139433383941650391e-01,2.477068600305151858e+00
1.159422397613525391e-01,2.480157909412134654e+00
1.185691356658935547e-01,2.480141220109608025e+00
1.208369731903076172e-01,2.472224530246797780e+00
1.228358745574951172e-01,2.477003631234601766e+00
1.248354911804199219e-01,2.476867136581794693e+00
1.268277168273925781e-01,2.475930747500747042e+00
1.288249492645263672e-01,2.476529774252149263e+00
1.308286190032958984e-01,2.478185591481398387e+00
1.328272819519042969e-01,2.478419241716771193e+00
1.348936557769775391e-01,2.479185757539958512e+00
1.368944644927978516e-01,2.432890824424126741e+00
1.389205455780029297e-01,2.424610546184843507e+00
1.409018039703369141e-01,2.413918663730461933e+00
1.429162025451660156e-01,2.402894187318585839e+00
1.448361873626708984e-01,2.409764815540887728e+00
1.468274593353271484e-01,2.437470845874648795e+00
1.488389968872070312e-01,2.440605454517061013e+00
1.508417129516601562e-01,2.444248490840016608e+00
1.528358459472656250e-01,2.446008020163538355e+00
1.548380851745605469e-01,2.449925237885145712e+00
1.568350791931152344e-01,2.450973087665210493e+00
1.588351726531982422e-01,2.454328233519582181e+00
1.608352661132812500e-01,2.456223065402873384e+00
1.628370285034179688e-01,2.459985907076109424e+00
1.648347377777099609e-01,2.460586125920549261e+00
1.668350696563720703e-01,2.463413174559256458e+00
1.688339710235595703e-01,2.464874084576855306e+00
1.708343029022216797e-01,2.467185552976793428e+00
1.728341579437255859e-01,2.469029124859467128e+00
1.749045848846435547e-01,2.471596297215973959e+00
1.769146919250488281e-01,2.452378565356560181e+00
1.788477897644042969e-01,2.416997840046624990e+00
1.808331012725830078e-01,2.455371910974015304e+00
1.828882694244384766e-01,2.460078294286524692e+00
1.849386692047119141e-01,2.452655726987805984e+00
1.869058609008789062e-01,2.428249410182167445e+00
1.888554096221923828e-01,2.427892378317401345e+00
1.909179687500000000e-01,2.440852813822366407e+00
1.928873062133789062e-01,2.403186846159320655e+00
1.948785781860351562e-01,2.415650178867599696e+00
1.968376636505126953e-01,2.436642341213505425e+00
1.988356113433837891e-01,2.443090968500491122e+00
2.008354663848876953e-01,2.446678572497197557e+00
2.028346061706542969e-01,2.450470620449855197e+00
2.048316001892089844e-01,2.453016335131684933e+00
2.068350315093994141e-01,2.457913453330213382e+00
2.088336944580078125e-01,2.460731561271138457e+00
2.108337879180908203e-01,2.464774544808214340e+00
2.128336429595947266e-01,2.467101510417641475e+00
2.148332595825195312e-01,2.469576891610251845e+00
2.168331146240234375e-01,2.473625835612515811e+00
2.188327312469482422e-01,2.476105985177276647e+00
2.208323478698730469e-01,2.479386029170278061e+00
2.228319644927978516e-01,2.482297716414656019e+00
2.248318195343017578e-01,2.484470305975712279e+00
2.268328666687011719e-01,2.486365733905522291e+00
2.288324832916259766e-01,2.488417326023260046e+00
2.308323383331298828e-01,2.490755616516544535e+00
2.328314781188964844e-01,2.491833864669068532e+00
2.348318099975585938e-01,2.493847905856121372e+00
2.368316650390625000e-01,2.494038044695621181e+00
2.388317584991455078e-01,2.495978772160860615e+00
2.408311367034912109e-01,2.497048079615602489e+00
2.428314685821533203e-01,2.498472630795554039e+00
2.448313236236572266e-01,2.499778568718262761e+00
2.468307018280029297e-01,2.500675618729069072e+00
2.488298416137695312e-01,2.501666844089847075e+00
2.508301734924316406e-01,2.502175867816909260e+00
2.528302669525146484e-01,2.502798140382545000e+00
2.548308372497558594e-01,2.504062355048937150e+00
2.568297386169433594e-01,2.505086362968249603e+00
2.588300704956054688e-01,2.505865395768331894e+00
2.608287334442138672e-01,2.505135238782791873e+00
2.628314495086669922e-01,2.505957782978747161e+00
2.648277282714843750e-01,2.504787743662326704e+00
2.668294906616210938e-01,2.504890263663561711e+00
2.688291072845458984e-01,2.505307496226727437e+00
2.708287239074707031e-01,2.505179346225183679e+00
2.728285789489746094e-01,2.505284250412493918e+00
2.748289108276367188e-01,2.505463064368136372e+00
2.768282890319824219e-01,2.504310310400761352e+00
2.788283824920654297e-01,2.504891455756599328e+00
2.808282375335693359e-01,2.504020631792620577e+00
2.828273773193359375e-01,2.504656613428188905e+00
2.848272323608398438e-01,2.504292429005197107e+00
2.868280410766601562e-01,2.502970993872999372e+00
2.888271808624267578e-01,2.501848638278083570e+00
2.908267974853515625e-01,2.501531541530077618e+00
2.928276062011718750e-01,2.501227557805485446e+00
2.948267459869384766e-01,2.500664889891730525e+00
2.968270778656005859e-01,2.500706017101528289e+00
2.988269329071044922e-01,2.500346601050686957e+00
3.008265495300292969e-01,2.498791515683116415e+00
3.028261661529541016e-01,2.499453127318993495e+00
3.048260211944580078e-01,2.498377263352544730e+00
3.068261146545410156e-01,2.496933042637472511e+00
3.088257312774658203e-01,2.496097981464622251e+00
3.108255863189697266e-01,2.495583593318890792e+00
3.128254413604736328e-01,2.494846879821643881e+00
3.148252964019775391e-01,2.494721114006175355e+00
3.168249130249023438e-01,2.493049203520918411e+00
3.188257217407226562e-01,2.493973075625071090e+00
3.208246231079101562e-01,2.493066488869963848e+00
3.228294849395751953e-01,2.492062746532290873e+00
3.248260021209716797e-01,2.486642299490249286e+00
3.268249034881591797e-01,2.489176689288221667e+00
3.288354873657226562e-01,2.488832174400350539e+00
3.308229446411132812e-01,2.487827836016158756e+00
3.328211307525634766e-01,2.488314806022025039e+00
3.348243236541748047e-01,2.487426100662482042e+00
3.368232250213623047e-01,2.485915122737303307e+00
3.388240337371826172e-01,2.486634550885504780e+00
3.408231735229492188e-01,2.485304175055524922e+00
3.428237438201904297e-01,2.485132513658108167e+00
3.448224067687988281e-01,2.483914790620182611e+00
3.468222618103027344e-01,2.484179435274533443e+00
3.488221168518066406e-01,2.483042178516647436e+00
3.508224487304687500e-01,2.482844291072403120e+00
3.528227806091308594e-01,2.482210097576391217e+00
3.548223972320556641e-01,2.482198176646015053e+00
3.568220138549804688e-01,2.482618389441774820e+00
3.588216304779052734e-01,2.481531796637987508e+00
3.608214855194091797e-01,2.481750545710390110e+00
3.628218173980712891e-01,2.480958995933412847e+00
3.648214340209960938e-01,2.481816706873977818e+00
3.668212890625000000e-01,2.480259237320332044e+00
3.688209056854248047e-01,2.479881939873926466e+00
3.708202838897705078e-01,2.480781374070808010e+00
3.728203773498535156e-01,2.480281887088046755e+00
3.748202323913574219e-01,2.480544147556322354e+00
3.768198490142822266e-01,2.480190095924150295e+00
3.788194656372070312e-01,2.480018434526733540e+00
3.808195590972900391e-01,2.480404672670921240e+00
3.828191757202148438e-01,2.480101881039366685e+00
3.848192691802978516e-01,2.478699383580611038e+00
3.868198394775390625e-01,2.478582558462924634e+00
3.888194561004638672e-01,2.478496131717697448e+00
3.908193111419677734e-01,2.479325232425359626e+00
3.928186893463134766e-01,2.479642329173365578e+00
3.948190212249755859e-01,2.479399738240210649e+00
3.968183994293212891e-01,2.478484806833840093e+00
3.988187313079833984e-01,2.478103337061802858e+00
4.008185863494873047e-01,2.477854785663459847e+00
4.028182029724121094e-01,2.478247580319354437e+00
4.048180580139160156e-01,2.478267845900993915e+00
4.068179130554199219e-01,2.478424010088921658e+00
4.088168144226074219e-01,2.478611168695827427e+00
4.108180999755859375e-01,2.477709946359389459e+00
4.128174781799316406e-01,2.478522953811043816e+00
4.148168563842773438e-01,2.478845414977719042e+00
4.168164730072021484e-01,2.478479442415170819e+00
4.188163280487060547e-01,2.478450236135749218e+00
4.208161830902099609e-01,2.479033765677662426e+00
4.228181838989257812e-01,2.478062805898523902e+00
4.248163700103759766e-01,2.478473481949982737e+00
4.268164634704589844e-01,2.478490171252509366e+00
4.288156032562255859e-01,2.478040156130809191e+00
4.308161735534667969e-01,2.478238639621572315e+00
4.328157901763916016e-01,2.478151616829826320e+00
4.348256587982177734e-01,2.479058203584933562e+00
4.368181228637695312e-01,2.471630867914064833e+00
4.388155937194824219e-01,2.477070984491227090e+00
4.408144950866699219e-01,2.476907071698554841e+00
4.428153038024902344e-01,2.478030619386508260e+00
4.448144435882568359e-01,2.478042540316884423e+00
4.468145370483398438e-01,2.476372417971183904e+00
4.488151073455810547e-01,2.478373942181341771e+00
4.508140087127685547e-01,2.478793558930582730e+00
4.528138637542724609e-01,2.478967008467555910e+00
4.548141956329345703e-01,2.479528484288273216e+00
4.568135738372802734e-01,2.480532822672464999e+00
4.588127136230468750e-01,2.480637726859775238e+00
4.608128070831298828e-01,2.481747565477796069e+00
4.628131389617919922e-01,2.482154665250142056e+00
4.648129940032958984e-01,2.482903895724283938e+00
4.668123722076416016e-01,2.481832204083466831e+00
4.688129425048828125e-01,2.482242880134925667e+00
4.708125591278076172e-01,2.483070192703031420e+00
4.728126525878906250e-01,2.483017740609376300e+00
4.748120307922363281e-01,2.484013138295785961e+00
4.768118858337402344e-01,2.484435139231102596e+00
4.788119792938232422e-01,2.484788594816755847e+00
4.808115959167480469e-01,2.484430966905470939e+00
4.828114509582519531e-01,2.485096750866979676e+00
4.848110675811767578e-01,2.484243808298564726e+00
4.868109226226806641e-01,2.484272418531467519e+00
4.888105392456054688e-01,2.486110029948953581e+00
4.908113479614257812e-01,2.486677466234858969e+00
4.928102493286132812e-01,2.486734686700664554e+00
4.948108196258544922e-01,2.486790119026913715e+00
4.968104362487792969e-01,2.487064300425565477e+00
4.988100528717041016e-01,2.487121520891371063e+00
5.008094310760498047e-01,2.487141190426491733e+00
5.028107166290283203e-01,2.487284241591005696e+00
5.048098564147949219e-01,2.488474546489065631e+00
5.068092346191406250e-01,2.486784158561725633e+00
5.088090896606445312e-01,2.488635479049143839e+00
5.108089447021484375e-01,2.488747535794679777e+00
5.128092765808105469e-01,2.488873897656667111e+00
5.148086547851562500e-01,2.489093242775588521e+00
5.168097019195556641e-01,2.489452062779911046e+00
5.188095569610595703e-01,2.488341032068852599e+00
5.208077430725097656e-01,2.489207683707199692e+00
5.228085517883300781e-01,2.489628492549478267e+00
5.248105525970458984e-01,2.489407359291000432e+00
5.268077850341796875e-01,2.486120162739773320e+00
5.288083553314208984e-01,2.487038074378737917e+00
5.308065414428710938e-01,2.487293182288787818e+00
5.328047275543212891e-01,2.486717401351619117e+00
5.348079204559326172e-01,2.487538157408017980e+00
5.368072986602783203e-01,2.487310467637833256e+00
5.388078689575195312e-01,2.487486301360881669e+00
5.408067703247070312e-01,2.487495242058663791e+00
5.428068637847900391e-01,2.487826643923121139e+00
5.448062419891357422e-01,2.488302885091648875e+00
5.468058586120605469e-01,2.487375436708383347e+00
5.488059520721435547e-01,2.488683162770648494e+00
5.508072376251220703e-01,2.488854824168065250e+00
5.528049468994140625e-01,2.488211689974271223e+00
5.548059940338134766e-01,2.488101421368291710e+00
5.568053722381591797e-01,2.488297520672979601e+00
5.588057041168212891e-01,2.489330469290074177e+00
5.608055591583251953e-01,2.489935456506664480e+00
5.628054141998291016e-01,2.489146886962281258e+00
5.648052692413330078e-01,2.489748297899758711e+00
5.668051242828369141e-01,2.488770185562394488e+00
5.688047409057617188e-01,2.489419876267895404e+00
5.708041191101074219e-01,2.490204273486646969e+00
5.728051662445068359e-01,2.490383683488808231e+00
5.748035907745361328e-01,2.490025459531004515e+00
5.768051147460937500e-01,2.490416466047342681e+00
5.788044929504394531e-01,2.489579020688417188e+00
5.808036327362060547e-01,2.489814459063346419e+00
5.829260349273681641e-01,2.490523158374209345e+00
5.849552154541015625e-01,2.446942621105029581e+00
5.869357585906982422e-01,2.421446135216490436e+00
5.889792442321777344e-01,2.416472723063554984e+00
5.921778678894042969e-01,2.402334499637424958e+00
5.941851139068603516e-01,2.389194058083779382e+00
5.968861579895019531e-01,2.370136066691406640e+00
5.988299846649169922e-01,2.374291106974018462e+00
6.008193492889404297e-01,2.369827910641182811e+00
6.028282642364501953e-01,2.365890427337935975e+00
6.048417091369628906e-01,2.361075563559003498e+00
6.068305969238281250e-01,2.348157447356873373e+00
6.088213920593261719e-01,2.352788132761494122e+00
6.108734607696533203e-01,2.350595873665317637e+00
6.128294467926025391e-01,2.342314403332996786e+00
6.148822307586669922e-01,2.346043866401179567e+00
6.168916225433349609e-01,2.343443315439619479e+00
6.189019680023193359e-01,2.341502587974380045e+00
6.208899021148681641e-01,2.323161044497614292e+00
6.229734420776367188e-01,2.337609808160043823e+00
6.249585151672363281e-01,2.336951772803279592e+00
6.269567012786865234e-01,2.338073532351676587e+00
6.289501190185546875e-01,2.341386954949731258e+00
6.309540271759033203e-01,2.341032307271040391e+00
6.328778266906738281e-01,2.339323441901617340e+00
6.347949504852294922e-01,2.379315779127571417e+00
6.367888450622558594e-01,2.394949483269391610e+00
6.387858390808105469e-01,2.406782794807290404e+00
6.407825946807861328e-01,2.417260100514900589e+00
6.427817344665527344e-01,2.427057913191069893e+00
6.447818279266357422e-01,2.438134245650082299e+00
6.467816829681396484e-01,2.448008352280658606e+00
6.487803459167480469e-01,2.457137400762725132e+00
6.507818698883056641e-01,2.466831501344621369e+00
6.527810096740722656e-01,2.474033531431380606e+00
6.547820568084716797e-01,2.484828529933515995e+00
6.567802429199218750e-01,2.491830288389955683e+00
6.587798595428466797e-01,2.499879300579941344e+00
6.607797145843505859e-01,2.508044541841094599e+00
6.627881526947021484e-01,2.515408100534450853e+00
6.647927761077880859e-01,2.520939412228991205e+00
6.667976379394531250e-01,2.527757588357637974e+00
6.687953472137451172e-01,2.533462349589151064e+00
6.707994937896728516e-01,2.540820543863838044e+00
6.727952957153320312e-01,2.544732397166776128e+00
6.747949123382568359e-01,2.551428979805586472e+00
6.767952442169189453e-01,2.556562132425562517e+00
6.787962913513183594e-01,2.560791678523025361e+00
6.807942390441894531e-01,2.563231892971026049e+00
6.827943325042724609e-01,2.567715950932019986e+00
6.847937107086181641e-01,2.570914932598463487e+00
6.867935657501220703e-01,2.573973247286468258e+00
6.887934207916259766e-01,2.575630256608754998e+00
6.907930374145507812e-01,2.578443596177530051e+00
6.927926540374755859e-01,2.581531117144956422e+00
6.947927474975585938e-01,2.584286640201406637e+00
6.967918872833251953e-01,2.585543106263054280e+00
6.987929344177246094e-01,2.587468336518804701e+00
7.007920742034912109e-01,2.588744472115573014e+00
7.027926445007324219e-01,2.589262436540417323e+00
7.047917842864990234e-01,2.590239952831262737e+00
7.067921161651611328e-01,2.590582083533058633e+00
7.087910175323486328e-01,2.590812157489318590e+00
7.107920646667480469e-01,2.591140579121181897e+00
7.127909660339355469e-01,2.591044019585134972e+00
7.147910594940185547e-01,2.590645264464052300e+00
7.167909145355224609e-01,2.589134882585392372e+00
7.187907695770263672e-01,2.589162300725257548e+00
7.208590507507324219e-01,2.588208626295164461e+00
7.228791713714599609e-01,2.539553348964851853e+00
7.250299453735351562e-01,2.527827325800338532e+00
7.272250652313232422e-01,2.515260280997786424e+00
7.299849987030029297e-01,2.484767137142078752e+00
7.321329116821289062e-01,2.476243671923121337e+00
7.342355251312255859e-01,2.471939620010807470e+00
7.386200428009033203e-01,2.443207197571658718e+00
7.408792972564697266e-01,2.426033309225238632e+00
7.428233623504638672e-01,2.422074964293833510e+00
7.448091506958007812e-01,2.417382886097775074e+00
7.467935085296630859e-01,2.412218143012302196e+00
7.487916946411132812e-01,2.407752562493391313e+00
7.508378028869628906e-01,2.402337479870018999e+00
7.528614997863769531e-01,2.391817854859573433e+00
7.549011707305908203e-01,2.368079110154999611e+00
7.568545341491699219e-01,2.373177096030365973e+00
7.588334083557128906e-01,2.381565258689553488e+00
7.608666419982910156e-01,2.381083057055837671e+00
7.629232406616210938e-01,2.377020403983641117e+00
7.649199962615966797e-01,2.340213935400716760e+00
7.668995857238769531e-01,2.366902514326872264e+00
7.688457965850830078e-01,2.371607705546344036e+00
7.708427906036376953e-01,2.374772712561215471e+00
7.728376388549804688e-01,2.373844668131431135e+00
7.748427391052246094e-01,2.376379653975922324e+00
7.768282890319824219e-01,2.378476545629089500e+00
7.788367271423339844e-01,2.381552145666139708e+00
7.808299064636230469e-01,2.383739636390165728e+00
7.828264236450195312e-01,2.386717484798131395e+00
7.848196029663085938e-01,2.389328764597030030e+00
7.868301868438720703e-01,2.391203330898682200e+00
7.888631820678710938e-01,2.394141840236406527e+00
7.908208370208740234e-01,2.396573113986625092e+00
7.928147315979003906e-01,2.399783420536925949e+00
7.948212623596191406e-01,2.402599144291775790e+00
7.968163490295410156e-01,2.404769945713275181e+00
7.988831996917724609e-01,2.408398676919779380e+00
8.008973598480224609e-01,2.408619214131738406e+00
8.028376102447509766e-01,2.413262416513254127e+00
8.048241138458251953e-01,2.417377521679105801e+00
8.068358898162841797e-01,2.421517064752228610e+00
8.088428974151611328e-01,2.424142649667579086e+00
8.108348846435546875e-01,2.429096988331912677e+00
8.128764629364013672e-01,2.431235603241396426e+00
8.148317337036132812e-01,2.435662440736584777e+00
8.168199062347412109e-01,2.439069442638092333e+00
8.188214302062988281e-01,2.441894107090724297e+00
8.208203315734863281e-01,2.444133453861886629e+00
8.228199481964111328e-01,2.446593933891526795e+00
8.248181343078613281e-01,2.449949079745898040e+00
8.268268108367919922e-01,2.452183062098391098e+00
8.288173675537109375e-01,2.454689437709979938e+00
8.308222293853759766e-01,2.457400257277519540e+00
8.328664302825927734e-01,2.460361416382958577e+00
8.348307609558105469e-01,2.462153132218495966e+00
8.368101119995117188e-01,2.465498145282047471e+00
8.388135433197021484e-01,2.467678483447847793e+00
8.408408164978027344e-01,2.468964155788917036e+00
8.428888320922851562e-01,2.471729811636186991e+00
8.450059890747070312e-01,2.475685176334998072e+00
8.471074104309082031e-01,2.471180852792364657e+00
8.500850200653076172e-01,2.450508171380540112e+00
8.522152900695800781e-01,2.457606489373027170e+00
8.555154800415039062e-01,2.452017957212681232e+00
8.575024604797363281e-01,2.413983632801012025e+00
8.598194122314453125e-01,2.444855266196163335e+00
8.617904186248779297e-01,2.447610193206094742e+00
8.637843132019042969e-01,2.449845963698144224e+00
8.658196926116943359e-01,2.451102429759791868e+00
8.678569793701171875e-01,2.438547901934135176e+00
8.698444366455078125e-01,2.435218982126591492e+00
8.718032836914062500e-01,2.436542801444864459e+00
8.738334178924560547e-01,2.448756390661762872e+00
8.758122920989990234e-01,2.442775063845522787e+00
8.777995109558105469e-01,2.451845103722226860e+00
8.798611164093017578e-01,2.452888185130141174e+00
8.819117546081542969e-01,2.448404127169147237e+00
8.838346004486083984e-01,2.452876264199765011e+00
8.857688903808593750e-01,2.496340572397777180e+00
8.877649307250976562e-01,2.510535420243193983e+00
8.897652626037597656e-01,2.526232901362526651e+00
8.917636871337890625e-01,2.531852427941850170e+00
8.937635421752929688e-01,2.546479409513402903e+00
8.957674503326416016e-01,2.554904527056756969e+00
8.977684974670410156e-01,2.564466901357996598e+00
8.997659683227539062e-01,2.570963808413005758e+00
9.017660617828369141e-01,2.581687877379402973e+00
9.037647247314453125e-01,2.587793181871555159e+00
9.057672023773193359e-01,2.596467446859770600e+00
9.077632427215576172e-01,2.602700305306947737e+00
9.097638130187988281e-01,2.609660340507071297e+00
9.117634296417236328e-01,2.613914324511805276e+00
9.137632846832275391e-01,2.621459677393398024e+00
9.157671928405761719e-01,2.625079467902120101e+00
9.177682399749755859e-01,2.629124835625271217e+00
9.197638034820556641e-01,2.628218248870163976e+00
9.217634201049804688e-01,2.634910063136823410e+00
9.237670898437500000e-01,2.636490182458183895e+00
9.257640838623046875e-01,2.634588794063185802e+00
9.277625083923339844e-01,2.638324813643075473e+00
9.297633171081542969e-01,2.641455249959856477e+00
9.317619800567626953e-01,2.641063647396999503e+00
9.337704181671142578e-01,2.643378692076050474e+00
9.357671737670898438e-01,2.642007785082791660e+00
9.377641677856445312e-01,2.643308358586831108e+00
9.397621154785156250e-01,2.642849402767348810e+00
9.417624473571777344e-01,2.642028050664431138e+00
9.437615871429443359e-01,2.640731649486023347e+00
9.457619190216064453e-01,2.640509920181026260e+00
9.477612972259521484e-01,2.638405875969633385e+00
9.497616291046142578e-01,2.637806253171712356e+00
9.517598152160644531e-01,2.637515978517052773e+00
9.537606239318847656e-01,2.635488228260067345e+00
9.557633399963378906e-01,2.632709459389383611e+00
9.577627182006835938e-01,2.630135134474651082e+00
9.597592353820800781e-01,2.628096655380327107e+00
9.617607593536376953e-01,2.625570014187099233e+00
9.637587070465087891e-01,2.622743561594910844e+00
9.657602310180664062e-01,2.619926645747023386e+00
9.677584171295166016e-01,2.615942670815309512e+00
9.697594642639160156e-01,2.613821937301390008e+00
9.717574119567871094e-01,2.610554410285283566e+00
9.737586975097656250e-01,2.607667160948176299e+00
9.757604598999023438e-01,2.603476357874435987e+00
9.777605533599853516e-01,2.600554537839238289e+00
9.797573089599609375e-01,2.596367311044610826e+00
9.817585945129394531e-01,2.593173097750317790e+00
9.837572574615478516e-01,2.588604401183653092e+00
9.857590198516845703e-01,2.584858248812943682e+00
9.877567291259765625e-01,2.582015702964747472e+00
9.897592067718505859e-01,2.578192660593111807e+00
9.917566776275634766e-01,2.574689099155556882e+00
9.937579631805419922e-01,2.570883342132966654e+00
9.957554340362548828e-01,2.566875525340500452e+00
9.977619647979736328e-01,2.563835092048059927e+00
9.997568130493164062e-01,2.559851713162864861e+00
1.001757383346557617e+00,2.555918402185249683e+00
1.003809213638305664e+00,2.553136057035453099e+00
1.005796194076538086e+00,2.523255649001079792e+00
1.007816791534423828e+00,2.525793615078165022e+00
1.009805917739868164e+00,2.503267228992847038e+00
1.011776208877563477e+00,2.505182922504296528e+00
1.013770103454589844e+00,2.516759337992589440e+00
1.015768766403198242e+00,2.514890136109606544e+00
1.017779350280761719e+00,2.513906063307054239e+00
1.019770145416259766e+00,2.509631217674161974e+00
1.021768569946289062e+00,2.510351837915401063e+00
1.023768663406372070e+00,2.508645356732053244e+00
1.025769472122192383e+00,2.506481111822260743e+00
1.027767181396484375e+00,2.506366670890649573e+00
1.029768705368041992e+00,2.504455745751350548e+00
1.031767368316650391e+00,2.504110634816960612e+00
1.033768653869628906e+00,2.502745688288889880e+00
1.035765886306762695e+00,2.502157390374826207e+00
1.037772655487060547e+00,2.501452863389594938e+00
1.039767980575561523e+00,2.500154078025111914e+00
1.041767597198486328e+00,2.499984800813770391e+00
1.043766260147094727e+00,2.498166262884886635e+00
1.045767068862915039e+00,2.497906982649205077e+00
1.047765970230102539e+00,2.496800124263778287e+00
1.049766778945922852e+00,2.496350109142078111e+00
1.051765918731689453e+00,2.494502960980291562e+00
1.053766727447509766e+00,2.494309841908197711e+00
1.055764198303222656e+00,2.493536173526784694e+00
1.057769298553466797e+00,2.493028937939278933e+00
1.059764623641967773e+00,2.492462097699892354e+00
1.061765432357788086e+00,2.492595016073586578e+00
1.063763856887817383e+00,2.491695581876705035e+00
1.065765619277954102e+00,2.492065130718366106e+00
1.067764043807983398e+00,2.490868269308599281e+00
1.069764137268066406e+00,2.490727006283641742e+00
1.071763277053833008e+00,2.490592299770391094e+00
1.073764562606811523e+00,2.489719091620337110e+00
1.075762510299682617e+00,2.490272818836309909e+00
1.077768802642822266e+00,2.489990292786394832e+00
1.079763412475585938e+00,2.489784656737406010e+00
1.081764221191406250e+00,2.489732204643750890e+00
1.083762645721435547e+00,2.490015922786703584e+00
1.085763692855834961e+00,2.490667997678279733e+00
1.087762355804443359e+00,2.490898667681058498e+00
1.089763164520263672e+00,2.490775882098184013e+00
1.091761827468872070e+00,2.490672170003911390e+00
1.093761682510375977e+00,2.491586505363763138e+00
1.095761775970458984e+00,2.490119038834457399e+00
1.097765684127807617e+00,2.491039334659497229e+00
1.099761962890625000e+00,2.491648494201719188e+00
1.101762056350708008e+00,2.491741477458653264e+00
1.103760957717895508e+00,2.491477428850821241e+00
1.105762004852294922e+00,2.491994797229146741e+00
1.107760906219482422e+00,2.492048441415839477e+00
1.109760999679565430e+00,2.492798267936500167e+00
1.111760377883911133e+00,2.493623792365049496e+00
1.113761186599731445e+00,2.493426500967323989e+00
1.115759611129760742e+00,2.493560015387537021e+00
1.118568420410156250e+00,2.483015356423301068e+00
1.120757818222045898e+00,2.481450734311429596e+00
1.122750520706176758e+00,2.485468087848197172e+00
1.124753475189208984e+00,2.486264405997324900e+00
1.126749992370605469e+00,2.484979329702774464e+00
1.128749370574951172e+00,2.484841642956929775e+00
1.130749702453613281e+00,2.487589417408635484e+00
1.132747650146484375e+00,2.487259207637215752e+00
1.134747982025146484e+00,2.488988338588278282e+00
1.136747360229492188e+00,2.489735780922863739e+00
1.138748645782470703e+00,2.490613757445068188e+00
1.140747070312500000e+00,2.490922509541810825e+00
1.142747402191162109e+00,2.493561803527093446e+00
1.144747257232666016e+00,2.494597732376782062e+00
1.146747112274169922e+00,2.495044767265888197e+00
1.148761749267578125e+00,2.496502101004374197e+00
1.150760412216186523e+00,2.498094737302629653e+00
1.152759790420532227e+00,2.498408257771522756e+00
1.154759883880615234e+00,2.499408423830082882e+00
1.156759023666381836e+00,2.500831782916996815e+00
1.158759117126464844e+00,2.501670420368959924e+00
1.160758495330810547e+00,2.502224147584932723e+00
1.162758350372314453e+00,2.504061162955899533e+00
1.164758205413818359e+00,2.504093945514433983e+00
1.166758298873901367e+00,2.505162656922657050e+00
1.168757677078247070e+00,2.505739033906344559e+00
1.170757293701171875e+00,2.507037223224308775e+00
1.172757387161254883e+00,2.507698834860185855e+00
1.174758195877075195e+00,2.508611382080481178e+00
1.176757097244262695e+00,2.508687079988369817e+00
1.178756952285766602e+00,2.509966195817732171e+00
1.180756568908691406e+00,2.510428131869808510e+00
1.182756900787353516e+00,2.510995568155713897e+00
1.184755802154541016e+00,2.511422933509699362e+00
1.186757087707519531e+00,2.511702479327020399e+00
1.188758850097656250e+00,2.514073552378839338e+00
1.190756797790527344e+00,2.508573235103277455e+00
1.192755460739135742e+00,2.512953580969998768e+00
1.194756507873535156e+00,2.513438166789789818e+00
1.196755886077880859e+00,2.513634266094477709e+00
1.198755264282226562e+00,2.514047326332011778e+00
1.200754880905151367e+00,2.513542474930581250e+00
1.202755451202392578e+00,2.513923348656099677e+00
1.204755067825317383e+00,2.513872088655482173e+00
1.206754922866821289e+00,2.514331044474964472e+00
1.208755016326904297e+00,2.515040935878865014e+00
1.210754632949829102e+00,2.514664234478978244e+00
1.212753534317016602e+00,2.515733541933720563e+00
1.214754104614257812e+00,2.515759171934029315e+00
1.216753721237182617e+00,2.515338363091750296e+00
1.218753576278686523e+00,2.515556516117634089e+00
1.220752954483032227e+00,2.514493765174599105e+00
1.222753763198852539e+00,2.515772881003961903e+00
1.224753856658935547e+00,2.515691818677403990e+00
1.226753234863281250e+00,2.516113223566201373e+00
1.228756189346313477e+00,2.515062393553542108e+00
1.230752706527709961e+00,2.516032161239643461e+00
1.232752799987792969e+00,2.516604961944218122e+00
1.234752893447875977e+00,2.516680063805587952e+00
1.236752033233642578e+00,2.516873778924200611e+00
1.238752126693725586e+00,2.516516747059434511e+00
1.240752220153808594e+00,2.515923084726701564e+00
1.242777585983276367e+00,2.516953649157720907e+00
1.244798421859741211e+00,2.506296933447949016e+00
1.246784210205078125e+00,2.497769295903360387e+00
1.248753786087036133e+00,2.497968971487161127e+00
1.250752687454223633e+00,2.501839101533782639e+00
1.252751350402832031e+00,2.502913177360674979e+00
1.254750967025756836e+00,2.503453195506715190e+00
1.256750822067260742e+00,2.504760921568980336e+00
1.258751392364501953e+00,2.505305708087171013e+00
1.260750293731689453e+00,2.506193221353676392e+00
1.262750387191772461e+00,2.506743372290536342e+00
1.264750480651855469e+00,2.507043183689496857e+00
1.266750097274780273e+00,2.508369387193845057e+00
1.268749952316284180e+00,2.508060635097102420e+00
1.270749807357788086e+00,2.508973182317397743e+00
1.272752761840820312e+00,2.509648503023207411e+00
1.274749279022216797e+00,2.507864535792414529e+00
1.276748895645141602e+00,2.509665788372252848e+00
1.278748989105224609e+00,2.510314883031234956e+00
1.280748367309570312e+00,2.510586680243811486e+00
1.282749176025390625e+00,2.511241735367981676e+00
1.284748792648315430e+00,2.511483730254617797e+00
1.286748170852661133e+00,2.512061895377861731e+00
1.288748502731323242e+00,2.511710823978283713e+00
1.290748119354248047e+00,2.512776555153912739e+00
1.292747497558593750e+00,2.512919606318426702e+00
1.294747829437255859e+00,2.512971462365563013e+00
1.296747922897338867e+00,2.513262929113260213e+00
1.298747539520263672e+00,2.512716354455513112e+00
1.300746917724609375e+00,2.513330878416404346e+00
1.302746772766113281e+00,2.513310612834764868e+00
1.304747104644775391e+00,2.514313759125919034e+00
1.306747198104858398e+00,2.514464558895177504e+00
1.308746337890625000e+00,2.514013947726958520e+00
1.310747146606445312e+00,2.514179648659187194e+00
1.312746286392211914e+00,2.513926924935212526e+00
1.314745664596557617e+00,2.514543833082178992e+00
1.316745996475219727e+00,2.514474095639478435e+00
1.318745851516723633e+00,2.514652909595120889e+00
1.320745468139648438e+00,2.514365019126536538e+00
1.322747468948364258e+00,2.514673771223279175e+00
1.324746608734130859e+00,2.510876358851952261e+00
1.326745986938476562e+00,2.514338793079708978e+00
1.328744888305664062e+00,2.513094843994956307e+00
1.330744743347167969e+00,2.512434424452116843e+00
1.332745075225830078e+00,2.513224186089537682e+00
1.334744930267333984e+00,2.514083089123140269e+00
1.336744546890258789e+00,2.513903679120979007e+00
1.338744401931762695e+00,2.513771952840322399e+00
1.340744972229003906e+00,2.512646617012812555e+00
1.342744112014770508e+00,2.513377966091390192e+00
1.344743251800537109e+00,2.514049710518087011e+00
1.346743583679199219e+00,2.515126170531054584e+00
1.348742485046386719e+00,2.513863147957700050e+00
1.350743293762207031e+00,2.514277400288271735e+00
1.352743148803710938e+00,2.513917388190911595e+00
1.354742765426635742e+00,2.514307202614212144e+00
1.356742858886718750e+00,2.514401974010702645e+00
1.358743190765380859e+00,2.514382304475581975e+00
1.360742330551147461e+00,2.514010371447845671e+00
1.362742424011230469e+00,2.514406742382853110e+00
1.364741802215576172e+00,2.515317501463592009e+00
1.366741657257080078e+00,2.514700593316625543e+00
1.368741989135742188e+00,2.514514030756238583e+00
1.370741367340087891e+00,2.514916362156434104e+00
1.372740507125854492e+00,2.515126766577573392e+00
1.374742269515991211e+00,2.514937819831111199e+00
1.376740217208862305e+00,2.514730991689084760e+00
1.378741025924682617e+00,2.515105904949415105e+00
1.380740165710449219e+00,2.514041961913342504e+00
1.382740736007690430e+00,2.515657247979313116e+00
1.384739875793457031e+00,2.514515222849276199e+00
1.386740922927856445e+00,2.514021100285184218e+00
1.388739824295043945e+00,2.514593304943240071e+00
1.390740394592285156e+00,2.514143289821539895e+00
1.392740011215209961e+00,2.514275016102196503e+00
1.394739627838134766e+00,2.514546217268254225e+00
1.396740198135375977e+00,2.514327468195851623e+00
1.398739337921142578e+00,2.514894308435238202e+00
1.400739431381225586e+00,2.513469161208767844e+00
1.402739048004150391e+00,2.514635624246075452e+00
1.404738187789916992e+00,2.514843644481139506e+00
1.406738281250000000e+00,2.514733375875159993e+00
1.408737897872924805e+00,2.514139713542427046e+00
1.410737991333007812e+00,2.514469923313846778e+00
1.412737369537353516e+00,2.514739336340348075e+00
1.414738178253173828e+00,2.515479626116707834e+00
1.416738271713256836e+00,2.515431346348684372e+00
1.418738365173339844e+00,2.515466513093294054e+00
1.420737504959106445e+00,2.514407338429371919e+00
1.422737121582031250e+00,2.515940966122265809e+00
1.424737691879272461e+00,2.516693176829001732e+00
1.426737308502197266e+00,2.516014875890598024e+00
1.428736686706542969e+00,2.516088189612411430e+00
1.430736303329467773e+00,2.516122164263983496e+00
1.432735443115234375e+00,2.515504064023978970e+00
1.434736251831054688e+00,2.516559066362269892e+00
1.436735391616821289e+00,2.517502011955024432e+00
1.438735961914062500e+00,2.517494859396798734e+00
1.440735578536987305e+00,2.515562476582822171e+00
1.442735433578491211e+00,2.516943516366901168e+00
1.444734811782836914e+00,2.517152132648484031e+00
1.446736097335815430e+00,2.517828049400812507e+00
1.448734283447265625e+00,2.518213691498481399e+00
1.450735330581665039e+00,2.517991366146965948e+00
1.452734470367431641e+00,2.517770828935006922e+00
1.454734802246093750e+00,2.518710794295167421e+00
1.456733703613281250e+00,2.517201604509545110e+00
1.458734273910522461e+00,2.518529000106930926e+00
1.460733890533447266e+00,2.516958417529871372e+00
1.462733983993530273e+00,2.517605128002778248e+00
1.464734077453613281e+00,2.517890038238768557e+00
1.466733455657958984e+00,2.517762484283743607e+00
1.468732833862304688e+00,2.518874111041320862e+00
1.470732450485229492e+00,2.517943086378942485e+00
1.472732543945312500e+00,2.518822254994184551e+00
1.474732398986816406e+00,2.518092098008644530e+00
1.476732492446899414e+00,2.518446745687335397e+00
1.478732109069824219e+00,2.519297900116193478e+00
1.480732202529907227e+00,2.517362537069623318e+00
1.482731819152832031e+00,2.519319953837389381e+00
1.484732627868652344e+00,2.517935337774197979e+00
1.486732244491577148e+00,2.518536748711675433e+00
1.488731861114501953e+00,2.518142761962743226e+00
1.490731954574584961e+00,2.518273892196881025e+00
1.492730855941772461e+00,2.518697085225234833e+00
1.494731187820434570e+00,2.518397869872793127e+00
1.496730804443359375e+00,2.519624533608500361e+00
1.498730659484863281e+00,2.519413533140842265e+00
1.500730752944946289e+00,2.519190611742808006e+00
1.502730846405029297e+00,2.519927921286573724e+00
1.504729986190795898e+00,2.519091668020685848e+00
1.506730794906616211e+00,2.519178094765913034e+00
1.508729934692382812e+00,2.519078554997272068e+00
1.510730028152465820e+00,2.519883813844181919e+00
1.512729644775390625e+00,2.519036235694436687e+00
1.514729738235473633e+00,2.519750299423968887e+00
1.516728639602661133e+00,2.519546451514536489e+00
1.518729925155639648e+00,2.518848481041012111e+00
1.520729064941406250e+00,2.518424095919620687e+00
1.522729635238647461e+00,2.520016136171357335e+00
1.524729251861572266e+00,2.519383134768383048e+00
1.526729345321655273e+00,2.518726887551175242e+00
1.528728723526000977e+00,2.518233957080120877e+00
1.530728340148925781e+00,2.518173160335202443e+00
1.532728433609008789e+00,2.517885865913136900e+00
1.534728765487670898e+00,2.517779173586270236e+00
1.536727190017700195e+00,2.517992558240003564e+00
1.538727521896362305e+00,2.517418565442391287e+00
1.540727138519287109e+00,2.516879143342869884e+00
1.542727231979370117e+00,2.517357172650954045e+00
1.544726848602294922e+00,2.517643274979981971e+00
1.546726703643798828e+00,2.518185677312097415e+00
1.548726797103881836e+00,2.517834009866000589e+00
1.550727367401123047e+00,2.517077626833633008e+00
1.552726268768310547e+00,2.516363563104100809e+00
1.554726123809814453e+00,2.516873778924200611e+00
1.556725740432739258e+00,2.517227830556372670e+00
1.558725595474243164e+00,2.517214121486440082e+00
1.560725688934326172e+00,2.516377272174033397e+00
1.562725543975830078e+00,2.516981067297586083e+00
1.564725160598754883e+00,2.517267169626614010e+00
1.566725015640258789e+00,2.516807617760612903e+00
1.568724870681762695e+00,2.516811194039725752e+00
1.570727825164794922e+00,2.516655625898316817e+00
1.572724580764770508e+00,2.514461578662583463e+00
1.574725627899169922e+00,2.515952291006123165e+00
1.576726675033569336e+00,2.516444625430658721e+00
1.578725099563598633e+00,2.515012325645962221e+00
1.580723524093627930e+00,2.515241803555703370e+00
1.582724332809448242e+00,2.515772284957443095e+00
1.584723711013793945e+00,2.516276540312354815e+00
1.586723566055297852e+00,2.516183557055420739e+00
1.588723421096801758e+00,2.515921296587145140e+00
1.590723991394042969e+00,2.516139449613028933e+00
1.592723131179809570e+00,2.516345085662017755e+00
1.594724416732788086e+00,2.516486944733494102e+00
1.596722602844238281e+00,2.515074910530437080e+00
1.598723411560058594e+00,2.515836657981474378e+00
1.600722551345825195e+00,2.515909375656768976e+00
1.602723121643066406e+00,2.516638340549271380e+00
1.604721784591674805e+00,2.516876759156794652e+00
1.606721878051757812e+00,2.516498269617351458e+00
1.608721494674682617e+00,2.516228856590850160e+00
1.610721588134765625e+00,2.516939940087788319e+00
1.612721920013427734e+00,2.517740430562547704e+00
1.614722013473510742e+00,2.517401280093345850e+00
1.616721630096435547e+00,2.516748609155250893e+00
1.618721961975097656e+00,2.517400088000308234e+00
1.620721340179443359e+00,2.517234983114598368e+00
1.622721195220947266e+00,2.517865600331497422e+00
1.624720573425292969e+00,2.518198790335511195e+00
1.626720905303955078e+00,2.518029513124169672e+00
1.628720045089721680e+00,2.518578471967992005e+00
1.630720138549804688e+00,2.517199220323469877e+00
1.632786035537719727e+00,2.517264785440538777e+00
1.634800672531127930e+00,2.483533916894664184e+00
1.636799335479736328e+00,2.463667090376268742e+00
1.638837575912475586e+00,2.452819043733959425e+00
1.641017436981201172e+00,2.436862878425464451e+00
1.643013000488281250e+00,2.423565080590853960e+00
1.645823240280151367e+00,2.399211215878870096e+00
1.647768735885620117e+00,2.404446888500081148e+00
1.649729013442993164e+00,2.425442031078580918e+00
1.651717185974121094e+00,2.442078285465036025e+00
1.653717279434204102e+00,2.450187498353421311e+00
1.655716896057128906e+00,2.452757650942522183e+00
1.657718420028686523e+00,2.454520756545157223e+00
1.659714698791503906e+00,2.459484035907272936e+00
1.661714792251586914e+00,2.466309364594145404e+00
1.663714170455932617e+00,2.469105418813874575e+00
1.665715456008911133e+00,2.474703487718521000e+00
1.667713403701782227e+00,2.478148040550713471e+00
1.669720649719238281e+00,2.484430370858952131e+00
1.671717166900634766e+00,2.481925187340400907e+00
1.673716306686401367e+00,2.489606438828282364e+00
1.675716876983642578e+00,2.492480575141975407e+00
1.677716493606567383e+00,2.498154938001029279e+00
1.679717540740966797e+00,2.500149905699480257e+00
1.681716442108154297e+00,2.504327595749806790e+00
1.683715820312500000e+00,2.507210672761281955e+00
1.685716390609741211e+00,2.511036099318992854e+00
1.687714815139770508e+00,2.513680757722944747e+00
1.689715147018432617e+00,2.517811360098285878e+00
1.691714525222778320e+00,2.519764008493901475e+00
1.693714380264282227e+00,2.523131671325167691e+00
1.695714235305786133e+00,2.525494399725723316e+00
1.697714567184448242e+00,2.528231445340090477e+00
1.699710369110107422e+00,2.529395524191322853e+00
1.701714754104614258e+00,2.532085482130704168e+00
1.703713893890380859e+00,2.530559006996036420e+00
1.705715417861938477e+00,2.535500828683475039e+00
1.707711696624755859e+00,2.538426224997785585e+00
1.709714412689208984e+00,2.539201681518755027e+00
1.711712837219238281e+00,2.541565005965829460e+00
1.713713884353637695e+00,2.543589179943702039e+00
1.715712070465087891e+00,2.544724052515512813e+00
1.717712879180908203e+00,2.546327417651106817e+00
1.719712495803833008e+00,2.546671336492459137e+00
1.721712827682495117e+00,2.547186320684709848e+00
1.723714828491210938e+00,2.549404805827713894e+00
1.725713729858398438e+00,2.545411294151698645e+00
1.727711677551269531e+00,2.548864787681673683e+00
1.729711294174194336e+00,2.549636667923530275e+00
1.731711387634277344e+00,2.550401395607161170e+00
1.733711481094360352e+00,2.550974196311735831e+00
1.735710144042968750e+00,2.549378579780886334e+00
1.737710714340209961e+00,2.550681537471001015e+00
1.739710569381713867e+00,2.551874822601654991e+00
1.741710901260375977e+00,2.551120823755362643e+00
1.743709564208984375e+00,2.551876610741211415e+00
1.745710849761962891e+00,2.552492922841659073e+00
1.747709751129150391e+00,2.552528685632787564e+00
1.749710559844970703e+00,2.552297419583489990e+00
1.751708984375000000e+00,2.552566236563472479e+00
1.753709793090820312e+00,2.551113671197136945e+00
1.755709171295166016e+00,2.552576965400811027e+00
1.757709503173828125e+00,2.551271027478102305e+00
1.759708404541015625e+00,2.550729817239024477e+00
1.761709451675415039e+00,2.536037270550402400e+00
1.763708353042602539e+00,2.532759014696957411e+00
1.765709161758422852e+00,2.529905740011422655e+00
1.767708539962768555e+00,2.527055445558481939e+00
1.769708633422851562e+00,2.524215283896360962e+00
1.771707773208618164e+00,2.521298232233313730e+00
1.773708343505859375e+00,2.518995704531157731e+00
1.775707721710205078e+00,2.516258658916790569e+00
1.777707576751708984e+00,2.514471115406884394e+00
1.779707193374633789e+00,2.512376607939792450e+00
1.781707048416137695e+00,2.509354056042916170e+00
1.783706665039062500e+00,2.507518232764986976e+00
1.785707712173461914e+00,2.506119907631862986e+00
1.787706851959228516e+00,2.504552305287397473e+00
1.789707183837890625e+00,2.502953708523953935e+00
1.791706323623657227e+00,2.500943839662532753e+00
1.793707132339477539e+00,2.499948441976123092e+00
1.795706987380981445e+00,2.498168647070961867e+00
1.797706604003906250e+00,2.496653496820151474e+00
1.799705266952514648e+00,2.495680152854937717e+00
1.801706075668334961e+00,2.494973837730150024e+00
1.803704500198364258e+00,2.493760287017856569e+00
1.805705785751342773e+00,2.493665515621366069e+00
1.807728052139282227e+00,2.492646872120722890e+00
1.809713363647460938e+00,2.472869452580148231e+00
1.811700582504272461e+00,2.487245498567283164e+00
1.813705444335937500e+00,2.487396298336541633e+00
1.815720558166503906e+00,2.486388979719755810e+00
1.817722558975219727e+00,2.483515439452581131e+00
1.819701910018920898e+00,2.479695377313539506e+00
1.821705579757690430e+00,2.481524644079761810e+00
1.823728322982788086e+00,2.482519445719652662e+00
1.825753688812255859e+00,2.475018200280451719e+00
1.827700138092041016e+00,2.476368841692071054e+00
1.829704999923706055e+00,2.479107079399475833e+00
1.831701517105102539e+00,2.479766902895796488e+00
1.833703756332397461e+00,2.481347618263675781e+00
1.835702657699584961e+00,2.482288179670355088e+00
1.837703466415405273e+00,2.482484278975042979e+00
1.839702367782592773e+00,2.484805880165801284e+00
1.841703653335571289e+00,2.485639749245613928e+00
1.843702316284179688e+00,2.486785350654763249e+00
1.845702886581420898e+00,2.502353489679514098e+00
1.847702026367187500e+00,2.505882681117377331e+00
1.849702596664428711e+00,2.509153188366077813e+00
1.851701736450195312e+00,2.511325181880614821e+00
1.853702783584594727e+00,2.516342105429423714e+00
1.855701208114624023e+00,2.519464793141459769e+00
1.857702493667602539e+00,2.522153558987803468e+00
1.859700441360473633e+00,2.524960938091389995e+00
1.861702203750610352e+00,2.527761164636750824e+00
1.863700151443481445e+00,2.530300918853392478e+00
1.865703582763671875e+00,2.532192174457570832e+00
1.867700338363647461e+00,2.532590333532134697e+00
1.869700670242309570e+00,2.536297742879121575e+00
1.871699333190917969e+00,2.537815873362526009e+00
1.873701810836791992e+00,2.540027205947304356e+00
1.875699043273925781e+00,2.540437881998763192e+00
1.877700328826904297e+00,2.542139594809960546e+00
1.879698991775512695e+00,2.544356887859926974e+00
1.881700515747070312e+00,2.545975154158491183e+00
1.883697986602783203e+00,2.546346491139708679e+00
1.885699272155761719e+00,2.547633951620334791e+00
1.887697219848632812e+00,2.548590010236503112e+00
1.889699459075927734e+00,2.549655145365613329e+00
1.891698122024536133e+00,2.550964659567434900e+00
1.893698930740356445e+00,2.551365798874592805e+00
1.895698308944702148e+00,2.547524875107392894e+00
1.897699117660522461e+00,2.550968831893066557e+00
1.899697542190551758e+00,2.551438516549887403e+00
1.901697874069213867e+00,2.551707333529869892e+00
1.903696775436401367e+00,2.551712697948539166e+00
1.905697345733642578e+00,2.551377719804968969e+00
1.907696723937988281e+00,2.551824754694075104e+00
1.909697055816650391e+00,2.551942175858280315e+00
1.911696672439575195e+00,2.552736705867851619e+00
1.913697481155395508e+00,2.552632993773578995e+00
1.915695667266845703e+00,2.552303976095196880e+00
1.917696952819824219e+00,2.551707929576388700e+00
1.919695615768432617e+00,2.550821608402920937e+00
1.921696662902832031e+00,2.551362222595479956e+00
1.923698186874389648e+00,2.550055688626252426e+00
1.925697803497314453e+00,2.544114296926772045e+00
1.927695751190185547e+00,2.546821540215198798e+00
1.929695844650268555e+00,2.547065919287910596e+00
1.931695222854614258e+00,2.545702164852877036e+00
1.933695316314697266e+00,2.545828526714864370e+00
1.935694217681884766e+00,2.544142907159674838e+00
1.937694549560546875e+00,2.544866507633507968e+00
1.939694643020629883e+00,2.541190688752017923e+00
1.941695690155029297e+00,2.543343012731434261e+00
1.943693637847900391e+00,2.541923825970151984e+00
1.945694446563720703e+00,2.540902798283433572e+00
1.947693824768066406e+00,2.540575568744607882e+00
1.949694633483886719e+00,2.539955680365047375e+00
1.951693296432495117e+00,2.538885180817267884e+00
1.953694343566894531e+00,2.538661067326196008e+00
1.955693006515502930e+00,2.537378971264239613e+00
1.957693338394165039e+00,2.536522452416712259e+00
1.959692478179931641e+00,2.535351817053772994e+00
1.961693525314331055e+00,2.535375658914525321e+00
1.963691711425781250e+00,2.533266846330981981e+00
1.965693473815917969e+00,2.533455197030925365e+00
1.967691421508789062e+00,2.531960908408273259e+00
1.969692468643188477e+00,2.531350556773013682e+00
1.971690654754638672e+00,2.530450526529613331e+00
1.973692417144775391e+00,2.528820935347191767e+00
1.975691318511962891e+00,2.528798881625995865e+00
1.977692365646362305e+00,2.528086606036020090e+00
1.979690551757812500e+00,2.526982131836668533e+00
1.981692075729370117e+00,2.526470127877012306e+00
1.983690500259399414e+00,2.524157467384036568e+00
1.985692024230957031e+00,2.524692121111407506e+00
1.987689733505249023e+00,2.524256411106158726e+00
1.989690542221069336e+00,2.523470821794369545e+00
1.991689682006835938e+00,2.522577944109194892e+00
1.993690490722656250e+00,2.521704139912622100e+00
1.995689392089843750e+00,2.521435918979158419e+00
1.997690439224243164e+00,2.522210779453609053e+00
1.999689579010009766e+00,2.521269622000410937e+00
2.001690149307250977e+00,2.520629468039210952e+00
2.003689289093017578e+00,2.519184055231101116e+00
2.005689382553100586e+00,2.519197764301033704e+00
2.007688760757446289e+00,2.518651785689805411e+00
2.009689807891845703e+00,2.518614830805639304e+00
2.011688709259033203e+00,2.518521251502186420e+00
2.013689041137695312e+00,2.517616452886635603e+00
2.015687942504882812e+00,2.517169417997529468e+00
2.017688751220703125e+00,2.515628041699891515e+00
2.019688129425048828e+00,2.514584960291976756e+00
2.021687984466552734e+00,2.514797748899191276e+00
2.023687839508056641e+00,2.513277830276230418e+00
2.025688648223876953e+00,2.513886393771933569e+00
2.027687072753906250e+00,2.513423861673338422e+00
2.029697656631469727e+00,2.513292731439200622e+00
2.031689405441284180e+00,2.513665260513455735e+00
2.033686399459838867e+00,2.510639728383985414e+00
2.035686969757080078e+00,2.511490882812843495e+00
2.037687540054321289e+00,2.511801423049142556e+00
2.039685487747192383e+00,2.511652411419440512e+00
2.041688442230224609e+00,2.510059775121185055e+00
2.043686628341674805e+00,2.509547175115010020e+00
2.045686960220336914e+00,2.511118949785107191e+00
2.047685384750366211e+00,2.509571613022281156e+00
2.049686431884765625e+00,2.509820164420624167e+00
2.051685810089111328e+00,2.510877550944989878e+00
2.053686618804931641e+00,2.508726419058611157e+00
2.055684804916381836e+00,2.510676087221632713e+00
2.057686090469360352e+00,2.509493530928317284e+00
2.059685945510864258e+00,2.509578169533988046e+00
2.061685562133789062e+00,2.510363758845777227e+00
2.063683986663818359e+00,2.509398163485307975e+00
2.065685033798217773e+00,2.510503829777697149e+00
2.067683696746826172e+00,2.510696948849790999e+00
2.069685220718383789e+00,2.511000932574383171e+00
2.071682453155517578e+00,2.511681617698862112e+00
2.073684692382812500e+00,2.512200774216744037e+00
2.075682878494262695e+00,2.511970104213965271e+00
2.077684164047241211e+00,2.512219251658827091e+00
2.079682826995849609e+00,2.512002886772499721e+00
2.081683397293090820e+00,2.511893214213039016e+00
2.083682060241699219e+00,2.512288989101527648e+00
2.085683107376098633e+00,2.514262499125301531e+00
2.087682008743286133e+00,2.512973250505119438e+00
2.089683055877685547e+00,2.513311804927802484e+00
2.091681718826293945e+00,2.513754667491276962e+00
2.093682527542114258e+00,2.514678539595429640e+00
2.095680713653564453e+00,2.514043750052898929e+00
2.097681760787963867e+00,2.514468135174290353e+00
2.099680662155151367e+00,2.515385450766736142e+00
2.101682424545288086e+00,2.515358628673389774e+00
2.103680610656738281e+00,2.514823378899500028e+00
2.105681657791137695e+00,2.515725793328976057e+00
2.107680320739746094e+00,2.515045704251015479e+00
2.109681606292724609e+00,2.516677083572993912e+00
2.111679553985595703e+00,2.516431512407244941e+00
2.113681316375732422e+00,2.517487706838573036e+00
2.115679740905761719e+00,2.517321409859825554e+00
2.117723464965820312e+00,2.518120112195028515e+00
2.119698047637939453e+00,2.498952448243194624e+00
2.121682882308959961e+00,2.509683073721298285e+00
2.123690605163574219e+00,2.508415878822312095e+00
2.125683069229125977e+00,2.505500615298821288e+00
2.127680063247680664e+00,2.508170903703081933e+00
2.129681587219238281e+00,2.510652245360880386e+00
2.131679058074951172e+00,2.509074510225595134e+00
2.133679628372192383e+00,2.511598171186228967e+00
2.135679721832275391e+00,2.510892452107960082e+00
2.137679338455200195e+00,2.512799204921627449e+00
2.139678239822387695e+00,2.511931957236761548e+00
2.141678810119628906e+00,2.513709964002366348e+00
2.143678188323974609e+00,2.513600291442905643e+00
2.145678997039794922e+00,2.515482010302783067e+00
2.147676706314086914e+00,2.515508236349610627e+00
2.149678707122802734e+00,2.516632976130602106e+00
2.151677131652832031e+00,2.516373099848401740e+00
2.153678178787231445e+00,2.517469825443008791e+00
2.155676603317260742e+00,2.517983021495702634e+00
2.157677888870239258e+00,2.518285217080738381e+00
2.159676790237426758e+00,2.519298496162712286e+00
2.161676645278930664e+00,2.520196738266556213e+00
2.163676500320434570e+00,2.518950404995728309e+00
2.165676832199096680e+00,2.520844640832500705e+00
2.167675018310546875e+00,2.521406712699736818e+00
2.169677019119262695e+00,2.521893086659084293e+00
2.171675443649291992e+00,2.522542777364585209e+00
2.173676490783691406e+00,2.522945108764780731e+00
2.175674676895141602e+00,2.523361745281427648e+00
2.177676200866699219e+00,2.523801031565789277e+00
2.179674625396728516e+00,2.524257007152677534e+00
2.181674957275390625e+00,2.524913850416404149e+00
2.183675289154052734e+00,2.524006071568259291e+00
2.185675382614135742e+00,2.525497379958317357e+00
2.187673330307006836e+00,2.525310221351411588e+00
2.189675092697143555e+00,2.526287737642257003e+00
2.191673278808593750e+00,2.526772323462048053e+00
2.193675041198730469e+00,2.526926103463900564e+00
2.195674180984497070e+00,2.527429762772293476e+00
2.197674751281738281e+00,2.526994052767044696e+00
2.199672937393188477e+00,2.527030411604691995e+00
2.201674222946166992e+00,2.527660432775072241e+00
2.203672885894775391e+00,2.526856366021200007e+00
2.205673694610595703e+00,2.527819577195594025e+00
2.207672119140625000e+00,2.528651658135850244e+00
2.209673404693603516e+00,2.528320256271392896e+00
2.211672067642211914e+00,2.529635134891883741e+00
2.213673353195190430e+00,2.528668347438376873e+00
2.215672254562377930e+00,2.528800073719033481e+00
2.217673063278198242e+00,2.529181543491070716e+00
2.219671487808227539e+00,2.529352608841968664e+00
2.221672058105468750e+00,2.529522482099828995e+00
2.223671436309814453e+00,2.527927461615498306e+00
2.225672006607055664e+00,2.528321448364430513e+00
2.227670431137084961e+00,2.528766099067461415e+00
2.229671478271484375e+00,2.529256049305921739e+00
2.231670618057250977e+00,2.528400126504913192e+00
2.233671665191650391e+00,2.527761164636750824e+00
2.235670328140258789e+00,2.528669539531414490e+00
2.237670898437500000e+00,2.528363171620747085e+00
2.239669561386108398e+00,2.528298202550196994e+00
2.241670131683349609e+00,2.529508773029896407e+00
2.243670225143432617e+00,2.526346746247619013e+00
2.245670795440673828e+00,2.527343932073585098e+00
2.247668743133544922e+00,2.527069154628414527e+00
2.249669075012207031e+00,2.527863088591467022e+00
2.251668214797973633e+00,2.527553144401686769e+00
2.253668785095214844e+00,2.527461353237790309e+00
2.255668163299560547e+00,2.527042332535068159e+00
2.257668972015380859e+00,2.526366415782739683e+00
2.259668111801147461e+00,2.527257505328357912e+00
2.261668205261230469e+00,2.526737156717438371e+00
2.263667821884155273e+00,2.525719109263313999e+00
2.265669107437133789e+00,2.525866332753459620e+00
2.267666578292846680e+00,2.525989118336334105e+00
2.269667625427246094e+00,2.526353302759325903e+00
2.271676063537597656e+00,2.525026503208458895e+00
2.273754835128784180e+00,2.523347440164976252e+00
2.275696992874145508e+00,2.464118297591006534e+00
2.277670383453369141e+00,2.500030696395718621e+00
2.279668092727661133e+00,2.503933012954355775e+00
2.281669378280639648e+00,2.505837381581947909e+00
2.283666610717773438e+00,2.505226433900169525e+00
2.285666465759277344e+00,2.507436574391910256e+00
2.287666559219360352e+00,2.507947982305047674e+00
2.289666891098022461e+00,2.509441078834662164e+00
2.291664838790893555e+00,2.509910763491483010e+00
2.293665647506713867e+00,2.511058153040188756e+00
2.295665264129638672e+00,2.512122096076261357e+00
2.297665834426879883e+00,2.512675227245715348e+00
2.299664735794067383e+00,2.513711156095403965e+00
2.301664590835571289e+00,2.514476479825553668e+00
2.303665399551391602e+00,2.515416445185714167e+00
2.305665493011474609e+00,2.515818776585910133e+00
2.307663440704345703e+00,2.516951264971645674e+00
2.309665203094482422e+00,2.517728509632171541e+00
2.311663866043090820e+00,2.518527808013893310e+00
2.313664436340332031e+00,2.519291939651005396e+00
2.315663576126098633e+00,2.519569101282251200e+00
2.317663908004760742e+00,2.520512046875005741e+00
2.319662809371948242e+00,2.521410288978849668e+00
2.321663856506347656e+00,2.520931067577727891e+00
2.323663473129272461e+00,2.522054615265681310e+00
2.325667142868041992e+00,2.521239819674470528e+00
2.327662944793701172e+00,2.517916264285596117e+00
2.329663038253784180e+00,2.519755663842638160e+00
2.331661939620971680e+00,2.521139087812791946e+00
2.333662986755371094e+00,2.521668377121493609e+00
2.335662126541137695e+00,2.520736160366077616e+00
2.337662458419799805e+00,2.522993984579323001e+00
2.339662075042724609e+00,2.523350420397570293e+00
2.341663122177124023e+00,2.523700299704110694e+00
2.343660354614257812e+00,2.525009813905932265e+00
2.345662593841552734e+00,2.523457708770955765e+00
2.347661256790161133e+00,2.525446716004218661e+00
2.349661827087402344e+00,2.526417079736838378e+00
2.351660490036010742e+00,2.526989284394894231e+00
2.353661775588989258e+00,2.527432146958368708e+00
2.355659961700439453e+00,2.527422610214067777e+00
2.357661008834838867e+00,2.528655830461481901e+00
2.359659194946289062e+00,2.529152933258167923e+00
2.361660480499267578e+00,2.529028359535737014e+00
2.363658666610717773e+00,2.529304329073945201e+00
2.365659952163696289e+00,2.528843585114906478e+00
2.367660045623779297e+00,2.530728880253896751e+00
2.369660139083862305e+00,2.530416551878041265e+00
2.371658802032470703e+00,2.531268302353418154e+00
2.373660326004028320e+00,2.531019154908556335e+00
2.375658750534057617e+00,2.532092634688929866e+00
2.377658843994140625e+00,2.531829182127616651e+00
2.379657983779907227e+00,2.532648150044459090e+00
2.381659507751464844e+00,2.532642189579271008e+00
2.383657693862915039e+00,2.533301417029072855e+00
2.385658740997314453e+00,2.532863918884267651e+00
2.387657165527343750e+00,2.533604804707146219e+00
2.389658689498901367e+00,2.533542219822671360e+00
2.391656875610351562e+00,2.533654872614726106e+00
2.393657684326171875e+00,2.534160916109194250e+00
2.395657062530517578e+00,2.534514967741366309e+00
2.397658109664916992e+00,2.534517351927441542e+00
2.399656772613525391e+00,2.534197274946841549e+00
2.401657581329345703e+00,2.534941141002314158e+00
2.403655767440795898e+00,2.534371916576852346e+00
2.405657291412353516e+00,2.534473840531568545e+00
2.407655239105224609e+00,2.533812228895691465e+00
2.409657001495361328e+00,2.534014288665567438e+00
2.411655902862548828e+00,2.533648316103019216e+00
2.413657188415527344e+00,2.534205023551586056e+00
2.415655851364135742e+00,2.534046475177583080e+00
2.417656660079956055e+00,2.534194294714247508e+00
2.419654846191406250e+00,2.534095350992125351e+00
2.421655654907226562e+00,2.533967797037100400e+00
2.423654556274414062e+00,2.533386055634743617e+00
2.425655841827392578e+00,2.532948557489938413e+00
2.427654504776000977e+00,2.533575598427724618e+00
2.429655790328979492e+00,2.533679906568516049e+00
2.431653976440429688e+00,2.533017102839601353e+00
2.433654785156250000e+00,2.532736960975761509e+00
2.435653209686279297e+00,2.533044520979466530e+00
2.437655448913574219e+00,2.533191148423093342e+00
2.439654350280761719e+00,2.529362145586269595e+00
2.441654443740844727e+00,2.532418076088199133e+00
2.443660736083984375e+00,2.532094422828486291e+00
2.445657253265380859e+00,2.529403868842586167e+00
2.447653293609619141e+00,2.530640665369113140e+00
2.449654102325439453e+00,2.530585233042863980e+00
2.451653242111206055e+00,2.531452480727729881e+00
2.453654050827026367e+00,2.531422082355270664e+00
2.455653190612792969e+00,2.530690733276693027e+00
2.457653999328613281e+00,2.530359331412235679e+00
2.459652662277221680e+00,2.529738250939637556e+00
2.461653232574462891e+00,2.530035082106004030e+00
2.463652133941650391e+00,2.529890838848452450e+00
2.465652704238891602e+00,2.529534403030205159e+00
2.467651128768920898e+00,2.529692355357689326e+00
2.469651937484741211e+00,2.530656758625120961e+00
2.471653223037719727e+00,2.530136410014201420e+00
2.473652839660644531e+00,2.529659572799154876e+00
2.475651502609252930e+00,2.527090016256572813e+00
2.477651834487915039e+00,2.528955045813923608e+00
2.479650974273681641e+00,2.529328170934697528e+00
2.481652021408081055e+00,2.529579702565634580e+00
2.483650445938110352e+00,2.529152933258167923e+00
2.485651016235351562e+00,2.528434101156485259e+00
2.487649679183959961e+00,2.528626624182060301e+00
2.489650726318359375e+00,2.529093328606287105e+00
2.491650104522705078e+00,2.528897825348118023e+00
2.493650674819946289e+00,2.528993788837646139e+00
2.495649099349975586e+00,2.529909912337054312e+00
2.497650146484375000e+00,2.528807822323777987e+00
2.499650239944458008e+00,2.529287043724899764e+00
2.501650094985961914e+00,2.529369894191014101e+00
2.503648757934570312e+00,2.529952827686408501e+00
2.505649566650390625e+00,2.529475990471361957e+00
2.507648229598999023e+00,2.529743019311788021e+00
2.509649038314819336e+00,2.530016008617402168e+00
2.511647701263427734e+00,2.529924813500024516e+00
2.513648986816406250e+00,2.530455294901763796e+00
2.515648126602172852e+00,2.530122104897750024e+00
2.517648935317993164e+00,2.529872361406369397e+00
2.519647598266601562e+00,2.529616061403281879e+00
2.521648883819580078e+00,2.529284659538824531e+00
2.523647546768188477e+00,2.529840174894353755e+00
2.525652170181274414e+00,2.528953257674367183e+00
2.527647495269775391e+00,2.525562349028867448e+00
2.529647588729858398e+00,2.527387443469458095e+00
2.531647205352783203e+00,2.527017894627797023e+00
2.533647298812866211e+00,2.528066340454380612e+00
2.535646200180053711e+00,2.526340189735912123e+00
2.537646770477294922e+00,2.528170052548653235e+00
2.539646148681640625e+00,2.527324262538464428e+00
2.541646718978881836e+00,2.527242604165387707e+00
2.543644905090332031e+00,2.527817789056037601e+00
2.545646429061889648e+00,2.526624503925383625e+00
2.547645092010498047e+00,2.526454034621004485e+00
2.549645900726318359e+00,2.527129951373332961e+00
2.551645278930664062e+00,2.526954713696803356e+00
2.553645372390747070e+00,2.526902261603148236e+00
2.555644273757934570e+00,2.527290883933411170e+00
2.557645797729492188e+00,2.527371946259969082e+00
2.559643983840942383e+00,2.527379098818194780e+00
2.561645507812500000e+00,2.527702156031388814e+00
2.563643693923950195e+00,2.528051439291410407e+00
2.565644741058349609e+00,2.526839080672154569e+00
2.567644119262695312e+00,2.527957859987957523e+00
2.569644212722778320e+00,2.527908984173415252e+00
2.571642875671386719e+00,2.528119984641073348e+00
2.573643922805786133e+00,2.527723017659547100e+00
2.575642824172973633e+00,2.527960244174032756e+00
2.577649593353271484e+00,2.527265253933102418e+00
2.579641580581665039e+00,2.525529566470332998e+00
2.581644535064697266e+00,2.526543441598825712e+00
2.583642721176147461e+00,2.527123394861626071e+00
2.585644006729125977e+00,2.524717751111716257e+00
2.587642192840576172e+00,2.526379528806153463e+00
2.589643001556396484e+00,2.526750269740852151e+00
2.591641187667846680e+00,2.526356282991919944e+00
2.593642711639404297e+00,2.525996866941078611e+00
2.595640897750854492e+00,2.526200118803992201e+00
2.597642660140991211e+00,2.525396052050119966e+00
2.599641084671020508e+00,2.525487843214016426e+00
2.601642370223999023e+00,2.526082697639786989e+00
2.603640794754028320e+00,2.526886764393659224e+00
2.605642080307006836e+00,2.524116936220757612e+00
2.607640266418457031e+00,2.525962892289506545e+00
2.609641790390014648e+00,2.525928321591415671e+00
2.611639738082885742e+00,2.525370422049811214e+00
2.613641262054443359e+00,2.525947395080017532e+00
2.615639209747314453e+00,2.525875273451241743e+00
2.617640256881713867e+00,2.526881996021508758e+00
2.619638442993164062e+00,2.527364793701743384e+00
2.621640205383300781e+00,2.528435889296041683e+00
2.623638629913330078e+00,2.527349892538773179e+00
2.625639915466308594e+00,2.525722089495908040e+00
2.627638339996337891e+00,2.527102533233467785e+00
2.629639148712158203e+00,2.526912990440486784e+00
2.631638765335083008e+00,2.526030841592650678e+00
2.633639574050903320e+00,2.526875439509801868e+00
2.635649204254150391e+00,2.527091208349610429e+00
2.637642621994018555e+00,2.519993486403642624e+00
2.639638185501098633e+00,2.524136009709359474e+00
2.641639471054077148e+00,2.525573077866205995e+00
2.643637895584106445e+00,2.526250782758090896e+00
2.645638704299926758e+00,2.524211111570729305e+00
2.647637367248535156e+00,2.526041570429989225e+00
2.649638175964355469e+00,2.524113359941644763e+00
2.651636600494384766e+00,2.525872889265166510e+00
2.653638124465942383e+00,2.526257935316316594e+00
2.655636787414550781e+00,2.526226344850819761e+00
2.657638311386108398e+00,2.523378434583954277e+00
2.659635543823242188e+00,2.526182833454946763e+00
2.661637067794799805e+00,2.526442709737147130e+00
2.663636445999145508e+00,2.526368799968814916e+00
2.665637016296386719e+00,2.525597515773477131e+00
2.667635917663574219e+00,2.527292076026448786e+00
2.669636249542236328e+00,2.527212801839447298e+00
2.671635389328002930e+00,2.526938620440795535e+00
2.673636674880981445e+00,2.527635994867801106e+00
2.675634860992431641e+00,2.527506056726700923e+00
2.677635431289672852e+00,2.527616921379199244e+00
2.679635047912597656e+00,2.527907196033858828e+00
2.681635141372680664e+00,2.527850571614572051e+00
2.683634519577026367e+00,2.527478638586835746e+00
2.685634851455688477e+00,2.526932063929088645e+00
2.687633752822875977e+00,2.528226080921421204e+00
2.689635276794433594e+00,2.528548542088096429e+00
2.691633462905883789e+00,2.528360787434671852e+00
2.693634271621704102e+00,2.528428736737815985e+00
2.695632934570312500e+00,2.529254261166365314e+00
2.697634458541870117e+00,2.527894679056963856e+00
2.699632883071899414e+00,2.528880539999072585e+00
2.701633691787719727e+00,2.528215948130601465e+00
2.703632116317749023e+00,2.528645697670662162e+00
2.705633163452148438e+00,2.528007331849018602e+00
2.707632303237915039e+00,2.528637353019398848e+00
2.709633588790893555e+00,2.528656426508000710e+00
2.711631774902343750e+00,2.529091540466730681e+00
2.713632822036743164e+00,2.529479566750474806e+00
2.715631484985351562e+00,2.529408637214736633e+00
2.717632293701171875e+00,2.528185549758142248e+00
2.719631433486938477e+00,2.529423538377706837e+00
2.721632003784179688e+00,2.529491487680850970e+00
2.723628997802734375e+00,2.529707852567178339e+00
2.725632429122924805e+00,2.527926865568979498e+00
2.727633237838745117e+00,2.523556056446559115e+00
2.729636907577514648e+00,2.526494565784283441e+00
2.731631517410278320e+00,2.526908222068336318e+00
2.733631849288940430e+00,2.527085247884422348e+00
2.735705137252807617e+00,2.525805536008541186e+00
2.737631320953369141e+00,2.526675167879482320e+00
2.739630937576293945e+00,2.527000609278751586e+00
2.741631031036376953e+00,2.527255717188801487e+00
2.743628740310668945e+00,2.527768317194976522e+00
2.745630264282226562e+00,2.526566091366540423e+00
2.747628450393676758e+00,2.526588145087736326e+00
2.749629259109497070e+00,2.527420822074511353e+00
2.751627445220947266e+00,2.526208463455255515e+00
2.753629684448242188e+00,2.526985112069262573e+00
2.755628108978271484e+00,2.526971402999329985e+00
2.757629156112670898e+00,2.526833120206966488e+00
2.759628534317016602e+00,2.526499334156433907e+00
2.761629343032836914e+00,2.525962892289506545e+00
2.763627529144287109e+00,2.526473108109606347e+00
2.765628099441528320e+00,2.526421848108988844e+00
2.767627000808715820e+00,2.526549402064013794e+00
2.769628286361694336e+00,2.526302638805227208e+00
2.771627426147460938e+00,2.526055875546440621e+00
2.773627996444702148e+00,2.526845637183861459e+00
2.775626420974731445e+00,2.527322474398908003e+00
2.777627468109130859e+00,2.526213827873924789e+00
2.779626369476318359e+00,2.526204291129623858e+00
2.781627893447875977e+00,2.526753249973446191e+00
2.783625602722167969e+00,2.526913586487005592e+00
2.785626411437988281e+00,2.526499930202952715e+00
2.787631273269653320e+00,2.526526156249780275e+00
2.789628744125366211e+00,2.522269788058971063e+00
2.791624784469604492e+00,2.524419727852312167e+00
2.793625593185424805e+00,2.524751129716769515e+00
2.795624971389770508e+00,2.524411383201048853e+00
2.797626018524169922e+00,2.525747123449697984e+00
2.799624681472778320e+00,2.525195780419800418e+00
2.801625728607177734e+00,2.525272074374207865e+00
2.803624391555786133e+00,2.525995674848040995e+00
2.805625200271606445e+00,2.525385323212781419e+00
2.807623863220214844e+00,2.526136341826479725e+00
2.809624910354614258e+00,2.526601854157668914e+00
2.811623334884643555e+00,2.526792589043687531e+00
2.813625335693359375e+00,2.527296844398599251e+00
2.815623044967651367e+00,2.526406946946018639e+00
2.817625045776367188e+00,2.527777257892758644e+00
2.819623947143554688e+00,2.527299228584674484e+00
2.821624279022216797e+00,2.526594105552924407e+00
2.823623180389404297e+00,2.527554336494724385e+00
2.825624227523803711e+00,2.526485029039982511e+00
2.827622890472412109e+00,2.527899447429114321e+00
2.829623937606811523e+00,2.528034749988883778e+00
2.831621170043945312e+00,2.528387013481499412e+00
2.833623409271240234e+00,2.527925673475941881e+00
2.835621595382690430e+00,2.527395192074202601e+00
2.837622642517089844e+00,2.527478638586835746e+00
2.839621543884277344e+00,2.527749243706374660e+00
2.841622352600097656e+00,2.528253499061286380e+00
2.843621730804443359e+00,2.527913752545565718e+00
2.845622539520263672e+00,2.527504268587144498e+00
2.847621440887451172e+00,2.528566423483660675e+00
2.849622011184692383e+00,2.528226676967940012e+00
2.851620674133300781e+00,2.528361383481190661e+00
2.853621244430541992e+00,2.528235617665722135e+00
2.855620384216308594e+00,2.528532448832088608e+00
2.857621431350708008e+00,2.529056969768639807e+00
2.859620332717895508e+00,2.529086176048061407e+00
2.861620903015136719e+00,2.529729310241855433e+00
2.863620042800903320e+00,2.529261413724591012e+00
2.865621089935302734e+00,2.529102865350588036e+00
2.867619752883911133e+00,2.530095878850922464e+00
2.869620561599731445e+00,2.529474798378324341e+00
2.871618747711181641e+00,2.530262175829669946e+00
2.873619556427001953e+00,2.529705468381103106e+00
2.875618219375610352e+00,2.530263367922707562e+00
2.877619743347167969e+00,2.530454698855244988e+00
2.879618406295776367e+00,2.530097666990478888e+00
2.881618738174438477e+00,2.530169788619254678e+00
2.883617877960205078e+00,2.530409995366334375e+00
2.885618925094604492e+00,2.530932132116810340e+00
2.887617826461791992e+00,2.530965510721863598e+00
2.889619112014770508e+00,2.531327907005298972e+00
2.891616821289062500e+00,2.530971471187051680e+00
2.893618106842041016e+00,2.530072036990170137e+00
2.895616769790649414e+00,2.530831400255131758e+00
2.897618293762207031e+00,2.530922595372509409e+00
2.899616479873657227e+00,2.531282607469869550e+00
2.901623964309692383e+00,2.531509701193535467e+00
2.903617620468139648e+00,2.524197402500796716e+00
2.905622005462646484e+00,2.528339329759994758e+00
2.907653808593750000e+00,2.518030109170688480e+00
2.909617900848388672e+00,2.516264023335459843e+00
2.911615610122680664e+00,2.515345515649975994e+00
2.913617134094238281e+00,2.510750593036483735e+00
2.915615797042846680e+00,2.503146827596047785e+00
2.917616367340087891e+00,2.489218412544538239e+00
2.919616460800170898e+00,2.484064994342922272e+00
2.921615839004516602e+00,2.481491265474708552e+00
2.923616170883178711e+00,2.477551994031905291e+00
2.925635337829589844e+00,2.475383576796481133e+00
2.927618026733398438e+00,2.450402075100192256e+00
2.929615020751953125e+00,2.468319829502085394e+00
2.931627511978149414e+00,2.458747322410026026e+00
2.933615684509277344e+00,2.373152658123094838e+00
2.935614585876464844e+00,2.432913474191841452e+00
2.937613964080810547e+00,2.436721615400506913e+00
2.939613819122314453e+00,2.438558034724954915e+00
2.941613435745239258e+00,2.441717677321157076e+00
2.943613290786743164e+00,2.442900829660991313e+00
2.945614576339721680e+00,2.446127229467299991e+00
2.947610378265380859e+00,2.447927886000619502e+00
2.949614763259887695e+00,2.451592379998252191e+00
2.951614141464233398e+00,2.451891595350693898e+00
2.953613996505737305e+00,2.355456633026198343e+00
2.955611705780029297e+00,2.419560840077500163e+00
2.957612752914428711e+00,2.425033143166678506e+00
2.959615707397460938e+00,2.428728631583289221e+00
2.961613178253173828e+00,2.434988312123812726e+00
2.963610887527465820e+00,2.438696317517318413e+00
2.965611696243286133e+00,2.443047457104618125e+00
2.967610597610473633e+00,2.448527508798540531e+00
2.969612121582031250e+00,2.453158790249680532e+00
2.971610546112060547e+00,2.457877094492566084e+00
2.973612546920776367e+00,2.455709869350179542e+00
2.975610017776489258e+00,2.367194577121088273e+00
2.977610826492309570e+00,2.435072354682964679e+00
2.979609489440917969e+00,2.441914372672363776e+00
2.981611251831054688e+00,2.448665791590904028e+00
2.983609437942504883e+00,2.454564863987549028e+00
2.985612392425537109e+00,2.461428935698144027e+00
2.987609148025512695e+00,2.454839045386200791e+00
2.989610910415649414e+00,2.469467815097309948e+00
2.991608142852783203e+00,2.474931177488705725e+00
2.993610143661499023e+00,2.469691332541863016e+00
2.995607614517211914e+00,2.389850305300987188e+00
2.997608900070190430e+00,2.454143459098751645e+00
2.999608993530273438e+00,2.461298401510525036e+00
3.001609325408935547e+00,2.468041475777801974e+00
3.003607034683227539e+00,2.475144562142439053e+00
3.005608558654785156e+00,2.481437025241497007e+00
3.007607221603393555e+00,2.487722931828848516e+00
3.009608745574951172e+00,2.494026719811763826e+00
3.011607646942138672e+00,2.499628364995523100e+00
3.013608694076538086e+00,2.505512536229197451e+00
3.015607357025146484e+00,2.501852810603715227e+00
3.017607927322387695e+00,2.413774420472910354e+00
3.019606828689575195e+00,2.483420072009571822e+00
3.021608352661132812e+00,2.490777670237740438e+00
3.023605585098266602e+00,2.498036920790305260e+00
3.025607109069824219e+00,2.503551543182318539e+00
3.027605295181274414e+00,2.509357632322029019e+00
3.029607057571411133e+00,2.515249552160447877e+00
3.031606197357177734e+00,2.520913186182163646e+00
3.033606290817260742e+00,2.526961866255029054e+00
3.035605430603027344e+00,2.530836764673801031e+00
3.037606239318847656e+00,2.441065602429580927e+00
3.039604902267456055e+00,2.501235306410229953e+00
3.041606664657592773e+00,2.509312332786599598e+00
3.043604135513305664e+00,2.515968384262130986e+00
3.045606136322021484e+00,2.521423998048782256e+00
3.047603607177734375e+00,2.526620331599751967e+00
3.049605369567871094e+00,2.531434599332165636e+00
3.051603555679321289e+00,2.536006276131424375e+00
3.053611516952514648e+00,2.540654842931609370e+00
3.055604457855224609e+00,2.543041413192917322e+00
3.057605504989624023e+00,2.544927900424945211e+00
3.059603929519653320e+00,2.451078587899039540e+00
3.061604976654052734e+00,2.518170180102608402e+00
3.063602924346923828e+00,2.524777355763597075e+00
3.065604448318481445e+00,2.530800405836153733e+00
3.067603111267089844e+00,2.534933988444088460e+00
3.069603443145751953e+00,2.540324633160189638e+00
3.071602344512939453e+00,2.544333045999174647e+00
3.073602914810180664e+00,2.548808163262386906e+00
3.075602769851684570e+00,2.549287384663508682e+00
3.077603578567504883e+00,2.555345601480675022e+00
3.079602003097534180e+00,2.467198666000207208e+00
3.081603765487670898e+00,2.524327936688415708e+00
3.083601474761962891e+00,2.531603876543507159e+00
3.085603237152099609e+00,2.536284629855707795e+00
3.087600946426391602e+00,2.540278737578241408e+00
3.089602231979370117e+00,2.544774120423092700e+00
3.091600418090820312e+00,2.549283808384395833e+00
3.093602180480957031e+00,2.553150958198423304e+00
3.095600605010986328e+00,2.556646174984714470e+00
3.097601413726806641e+00,2.559961385722325566e+00
3.099600315093994141e+00,2.560000128746048098e+00
3.101601600646972656e+00,2.467204030418876481e+00
3.103599548339843750e+00,2.528981271860751168e+00
3.105600833892822266e+00,2.534362379832551415e+00
3.107599735260009766e+00,2.538187806390262313e+00
3.109600305557250977e+00,2.542683189235113606e+00
3.111598491668701172e+00,2.546890681611380991e+00
3.113600492477416992e+00,2.549585407922912772e+00
3.115598201751708984e+00,2.552980488894044164e+00
3.117631196975708008e+00,2.556393451260739802e+00
3.119607448577880859e+00,2.533940974943754032e+00
3.121601104736328125e+00,2.469710406030464878e+00
3.123599052429199219e+00,2.522709670389851500e+00
3.125604867935180664e+00,2.530347410481859516e+00
3.127599954605102539e+00,2.531441751890391334e+00
3.129599809646606445e+00,2.538353507322490987e+00
3.131598472595214844e+00,2.540405695486747550e+00
3.133598327636718750e+00,2.543880646691399239e+00
3.135598897933959961e+00,2.546959226961043932e+00
3.137598514556884766e+00,2.550654119331135838e+00
3.139597892761230469e+00,2.553171819826581590e+00
3.141597747802734375e+00,2.553398317503728698e+00
3.143599033355712891e+00,2.463085348973911959e+00
3.145598888397216797e+00,2.505677045068388509e+00
3.147598028182983398e+00,2.518248858243091082e+00
3.149598360061645508e+00,2.513963283772859825e+00
3.151595830917358398e+00,2.523206177140018713e+00
3.153598546981811523e+00,2.528653446275406669e+00
3.155596256256103516e+00,2.524718943204753874e+00
3.157597780227661133e+00,2.532765571208664301e+00
3.159596920013427734e+00,2.537591163824935325e+00
3.161598682403564453e+00,2.535696927988162930e+00
3.163596153259277344e+00,2.473646101194155289e+00
3.165597677230834961e+00,2.482034263853342804e+00
3.167596101760864258e+00,2.507617176487109134e+00
3.169596672058105469e+00,2.495997845649462477e+00
3.171595335006713867e+00,2.513216437484793175e+00
3.173596382141113281e+00,2.513768972607728358e+00
3.175593852996826172e+00,2.520376744315236284e+00
3.177595853805541992e+00,2.524359527153912541e+00
3.179594278335571289e+00,2.529162470002468854e+00
3.181595802307128906e+00,2.533416454007202834e+00
3.183593511581420898e+00,2.534589473556217332e+00
3.185593843460083008e+00,2.449243360667629155e+00
3.187593936920166016e+00,2.503949106210363595e+00
3.189609527587890625e+00,2.513137163297791687e+00
3.191583156585693359e+00,2.518561186618946568e+00
3.193594694137573242e+00,2.522915306438840322e+00
3.195593357086181641e+00,2.527272406491328116e+00
3.197593927383422852e+00,2.531049553281015552e+00
3.199592590332031250e+00,2.535987202642822513e+00
3.201594591140747070e+00,2.539102141750114061e+00
3.203593015670776367e+00,2.541731898991095751e+00
3.205593824386596680e+00,2.459490592418979826e+00
3.207592010498046875e+00,2.507376969740029438e+00
3.209593057632446289e+00,2.518290581499407654e+00
3.211592197418212891e+00,2.523824277380022796e+00
3.213592767715454102e+00,2.527506056726700923e+00
3.215592145919799805e+00,2.531933490268408082e+00
3.217592239379882812e+00,2.536430065206296991e+00
3.219591140747070312e+00,2.541401093173157211e+00
3.221591472625732422e+00,2.543670838316778759e+00
3.223590135574340820e+00,2.548165029068592879e+00
3.225591182708740234e+00,2.548787897680747427e+00
3.227590560913085938e+00,2.477360663099367866e+00
3.229591131210327148e+00,2.509277166041989915e+00
3.231590032577514648e+00,2.523379626676991894e+00
3.233592033386230469e+00,2.527731362310810415e+00
3.235589742660522461e+00,2.532156411666442342e+00
3.237590789794921875e+00,2.535271350773733889e+00
3.239589691162109375e+00,2.539258901984560612e+00
3.241590261459350586e+00,2.542506163419027576e+00
3.243588924407958984e+00,2.545382087872277044e+00
3.245589733123779297e+00,2.548600143027322851e+00
3.247588872909545898e+00,2.450842553477591501e+00
3.249590396881103516e+00,2.513277830276230418e+00
3.251588582992553711e+00,2.518965306158698514e+00
3.253589868545532227e+00,2.523642483191786301e+00
3.255588293075561523e+00,2.527942362778468510e+00
3.257589101791381836e+00,2.531416717936601390e+00
3.259587526321411133e+00,2.534198467039879166e+00
3.261588335037231445e+00,2.538290922438016128e+00
3.263587713241577148e+00,2.542187278531465200e+00
3.265589237213134766e+00,2.544893925773373144e+00
3.267586946487426758e+00,2.541826074341067443e+00
3.269588232040405273e+00,2.448175245305924896e+00
3.271586418151855469e+00,2.515480222163226642e+00
3.273587942123413086e+00,2.522237005500436613e+00
3.275586366653442383e+00,2.525618973448154225e+00
3.277587413787841797e+00,2.530265156062263987e+00
3.279586791992187500e+00,2.533904616106106733e+00
3.281586885452270508e+00,2.537488047777181510e+00
3.283585548400878906e+00,2.540352051300054814e+00
3.285586118698120117e+00,2.543303673661192921e+00
3.287585496902465820e+00,2.546506827653268079e+00
3.289586544036865234e+00,2.454877192363404514e+00
3.291584968566894531e+00,2.513081134925023719e+00
3.293586492538452148e+00,2.519277038488035192e+00
3.295585393905639648e+00,2.523552480167446266e+00
3.297585725784301758e+00,2.527807060218699053e+00
3.299585103988647461e+00,2.531019750955075143e+00
3.301585674285888672e+00,2.535189096354138361e+00
3.303584098815917969e+00,2.538553778952810536e+00
3.305584192276000977e+00,2.541933362714452915e+00
3.307584524154663086e+00,2.544575636932329576e+00
3.309584856033325195e+00,2.544186418555547835e+00
3.311583757400512695e+00,2.447902852046829558e+00
3.313584089279174805e+00,2.514885367737456079e+00
3.315583944320678711e+00,2.520645561295218773e+00
3.317584276199340820e+00,2.525038424138835058e+00
3.319583415985107422e+00,2.529876533732001054e+00
3.321584224700927734e+00,2.533177439353160754e+00
3.323582410812377930e+00,2.537144724982347999e+00
3.325585603713989258e+00,2.540239398508000068e+00
3.327582836151123047e+00,2.538946573608705126e+00
3.329582452774047852e+00,2.545951312297738856e+00
3.331581830978393555e+00,2.456409031916741537e+00
3.333583354949951172e+00,2.513204516554417012e+00
3.335582017898559570e+00,2.517687978468892585e+00
3.337582826614379883e+00,2.524172368547006773e+00
3.339581727981567383e+00,2.528133097664487128e+00
3.341582775115966797e+00,2.532547418182780508e+00
3.343581438064575195e+00,2.536078397760200165e+00
3.345582008361816406e+00,2.539952700132453334e+00
3.347581386566162109e+00,2.542631929234496102e+00
3.349581956863403320e+00,2.546730941144339955e+00
3.351580619812011719e+00,2.547272151383418226e+00
3.353581428527832031e+00,2.454388434217981807e+00
3.355580568313598633e+00,2.516246141939895598e+00
3.357581138610839844e+00,2.522312703408325252e+00
3.359580278396606445e+00,2.525469365771933372e+00
3.361580848693847656e+00,2.529955807919002542e+00
3.363579750061035156e+00,2.533726994243501895e+00
3.365579843521118164e+00,2.538343374531671248e+00
3.367579936981201172e+00,2.541767661782224241e+00
3.369580030441284180e+00,2.544314568557091594e+00
3.371578216552734375e+00,2.548246687441669600e+00
3.373579502105712891e+00,2.461931998960018131e+00
3.375578403472900391e+00,2.515094580065557750e+00
3.377579212188720703e+00,2.522942724578705498e+00
3.379578590393066406e+00,2.526574436017803738e+00
3.381579399108886719e+00,2.531862560732669909e+00
3.383577585220336914e+00,2.534905974257704475e+00
3.385578155517578125e+00,2.539896075713166557e+00
3.387578487396240234e+00,2.542603915048112118e+00
3.389579772949218750e+00,2.546406095791589497e+00
3.391648769378662109e+00,2.548765247913032717e+00
3.393644094467163086e+00,2.523275318536200462e+00
3.395590543746948242e+00,2.521024050834661967e+00
3.397580146789550781e+00,2.514639200525188301e+00
3.399610996246337891e+00,2.530411783505890799e+00
3.401584863662719727e+00,2.521217765953274625e+00
3.403573989868164062e+00,2.529025379303142973e+00
3.405577182769775391e+00,2.531292740260689289e+00
3.407576560974121094e+00,2.533584539125506740e+00
3.409577369689941406e+00,2.536866371258064579e+00
3.411575555801391602e+00,2.539500300824677925e+00
3.413576841354370117e+00,2.541699712479080109e+00
3.415575265884399414e+00,2.544053500181853611e+00
3.417576074600219727e+00,2.536840145211237019e+00
3.419576883316040039e+00,2.544220393207119901e+00
3.421576499938964844e+00,2.547011083008180243e+00
3.423574924468994141e+00,2.548868960007305340e+00
3.425575017929077148e+00,2.550877636775688906e+00
3.427575111389160156e+00,2.551492756783098947e+00
3.429576158523559570e+00,2.553342885177479538e+00
3.431574344635009766e+00,2.554141587512682499e+00
3.433574914932250977e+00,2.556006617070033293e+00
3.435573577880859375e+00,2.557694620811298059e+00
3.437573432922363281e+00,2.558669752916068241e+00
3.439574241638183594e+00,2.543949788087580988e+00
3.441575050354003906e+00,2.554121321931043020e+00
3.443573474884033203e+00,2.556023306372559922e+00
3.445573568344116211e+00,2.556543058936960655e+00
3.447573423385620117e+00,2.556251592189263455e+00
3.449573755264282227e+00,2.557200498247206077e+00
3.451571941375732422e+00,2.557646341043274596e+00
3.453573226928710938e+00,2.558339543144648509e+00
3.455572128295898438e+00,2.558780021522047754e+00
3.457572460174560547e+00,2.559230632690266738e+00
3.459572792053222656e+00,2.553406066108473205e+00
3.461572647094726562e+00,2.552852934939019214e+00
3.463571310043334961e+00,2.555901712882723054e+00
3.465573072433471680e+00,2.555572695204340938e+00
3.467571020126342773e+00,2.555448121481910029e+00
3.469572782516479492e+00,2.555420107295526044e+00
3.471570730209350586e+00,2.554416961004371878e+00
3.473571777343750000e+00,2.554349607747746553e+00
3.475569963455200195e+00,2.555163807292438527e+00
3.477571725845336914e+00,2.554412788678740220e+00
3.479570150375366211e+00,2.554439610772086588e+00
3.481571435928344727e+00,2.540853922468891302e+00
3.483569860458374023e+00,2.549230760244221905e+00
3.485570669174194336e+00,2.548904126751915022e+00
3.487569570541381836e+00,2.547449177199504255e+00
3.489570379257202148e+00,2.546913331379095702e+00
3.491569757461547852e+00,2.547006314636029778e+00
3.493570089340209961e+00,2.546727364865227106e+00
3.495569229125976562e+00,2.546941941611998494e+00
3.497569799423217773e+00,2.547387784408067013e+00
3.499568700790405273e+00,2.546544974630471803e+00
3.501570940017700195e+00,2.542105620158388479e+00
3.503568887710571289e+00,2.535767261477382295e+00
3.505568981170654297e+00,2.537555997080325643e+00
3.507568120956420898e+00,2.539339368264599717e+00
3.509569644927978516e+00,2.538169924994698068e+00
3.511568069458007812e+00,2.538485233603147595e+00
3.513568639755249023e+00,2.538419072439559887e+00
3.515567302703857422e+00,2.537799184059999380e+00
3.517652273178100586e+00,2.537660305221117074e+00
3.519865989685058594e+00,2.538081114063395649e+00
3.524121999740600586e+00,2.531074587234805495e+00
3.528125524520874023e+00,2.542931144586937808e+00
3.532120227813720703e+00,2.555073208221579684e+00
3.536118745803833008e+00,2.561387725041833541e+00
3.540117740631103516e+00,2.567596741628258350e+00
3.544117212295532227e+00,2.572589823316314472e+00
3.548117876052856445e+00,2.572454520756545016e+00
3.552119731903076172e+00,2.615734054533726649e+00
3.556115865707397461e+00,2.615698887789116966e+00
3.560114860534667969e+00,2.580148289221321445e+00
3.564113855361938477e+00,2.581135938302986599e+00
3.568115234375000000e+00,2.587164352794212530e+00
3.572116851806640625e+00,2.570994802831983783e+00
3.576113462448120117e+00,2.571845957260841864e+00
3.580116271972656250e+00,2.572359153313535707e+00
3.584114074707031250e+00,2.572210141683833662e+00
3.588111162185668945e+00,2.577785560820765376e+00
3.592113256454467773e+00,2.572003313541807223e+00
3.596126317977905273e+00,2.570751019805791238e+00
3.600117683410644531e+00,2.563671179255387678e+00
3.604112625122070312e+00,2.560330338517467830e+00
3.608112335205078125e+00,2.561278052482372836e+00
3.612111568450927734e+00,2.558963603849840673e+00
3.616108417510986328e+00,2.563553162044663658e+00
3.620121002197265625e+00,2.557014531733337925e+00
3.624456167221069336e+00,2.556200332188645952e+00
3.628452301025390625e+00,2.559762902231562443e+00
3.632451534271240234e+00,2.558747835010032112e+00
3.636451482772827148e+00,2.560319013633610474e+00
3.640450954437255859e+00,2.560376234099416060e+00
3.644449472427368164e+00,2.559551901763904347e+00
3.648450613021850586e+00,2.557515806855655605e+00
3.652449607849121094e+00,2.556937045685892862e+00
3.656449079513549805e+00,2.555758661718209090e+00
3.660448312759399414e+00,2.553760117740645263e+00
3.664449214935302734e+00,2.552718228425768565e+00
3.668448686599731445e+00,2.549196189546131031e+00
3.672448158264160156e+00,2.547630375341221942e+00
3.676447153091430664e+00,2.547368114872946343e+00
3.680446863174438477e+00,2.545115059031850979e+00
3.684446573257446289e+00,2.543742363899035741e+00
3.688447713851928711e+00,2.541374867126329651e+00
3.692446470260620117e+00,2.539942567341633595e+00
3.696445703506469727e+00,2.539537851755362841e+00
3.700446367263793945e+00,2.577014276625427591e+00
3.704445838928222656e+00,2.575558134979979208e+00
3.708446025848388672e+00,2.574030467752273843e+00
3.712444782257080078e+00,2.533014718653526121e+00
3.716443061828613281e+00,2.531751696080171588e+00
3.720647573471069336e+00,2.531096640956001398e+00
3.724869012832641602e+00,2.531833950499767116e+00
3.729879140853881836e+00,2.524645033436421659e+00
3.734869718551635742e+00,2.522281112942828418e+00
3.739871263504028320e+00,2.522145810383058961e+00
3.744865179061889648e+00,2.519343199651622900e+00
3.749865770339965820e+00,2.520485820828178181e+00
3.754871845245361328e+00,2.519234123138681003e+00
3.759864807128906250e+00,2.519997658729274281e+00
3.764863729476928711e+00,2.520437541060154718e+00
3.769867658615112305e+00,2.519356908721555488e+00
3.774865150451660156e+00,2.520031037334327539e+00
3.779864549636840820e+00,2.520834508041680966e+00
3.784863471984863281e+00,2.520709338272731248e+00
3.789868593215942383e+00,2.521793546890443327e+00
3.794863700866699219e+00,2.521885338054339787e+00
3.799861669540405273e+00,2.522956433648638086e+00
3.804859638214111328e+00,2.523066702254617599e+00
3.809865713119506836e+00,2.523334327141562472e+00
3.814858675003051758e+00,2.524049582964132288e+00
3.819995880126953125e+00,2.523790302728450730e+00
3.824653625488281250e+00,2.523620429470590398e+00
3.828436851501464844e+00,2.530805174208304198e+00
3.832436323165893555e+00,2.528000179290792904e+00
3.836435079574584961e+00,2.529540959541912049e+00
3.840433835983276367e+00,2.529250088840733657e+00
3.844433307647705078e+00,2.529879513964595095e+00
3.848434209823608398e+00,2.530203763270826745e+00
3.852433443069458008e+00,2.531038824443677004e+00
3.856433153152465820e+00,2.530353966993566406e+00
3.860432863235473633e+00,2.531386915610660981e+00
3.864430904388427734e+00,2.531025115373744416e+00
3.868431568145751953e+00,2.531776730033961531e+00
3.872432708740234375e+00,2.531030479792413690e+00
3.876431226730346680e+00,2.532574240276126876e+00
3.880429983139038086e+00,2.532154623526885917e+00
3.884430646896362305e+00,2.531851831895331362e+00
3.888428926467895508e+00,2.531762424917510135e+00
3.892428636550903320e+00,2.531306449330621877e+00
3.896429061889648438e+00,2.532616559578962256e+00
3.900485038757324219e+00,2.531470362123294127e+00
3.904492378234863281e+00,2.506051958328718854e+00
3.908440828323364258e+00,2.520707550133174824e+00
3.912432909011840820e+00,2.519484462676580439e+00
3.916429996490478516e+00,2.521577778050634766e+00
3.920566082000732422e+00,2.523303332722584447e+00
3.924588203430175781e+00,2.523296180164358748e+00
3.928860902786254883e+00,2.528317872085317664e+00
3.933857679367065430e+00,2.522586288760458206e+00
3.938852071762084961e+00,2.523699703657591886e+00
3.943850278854370117e+00,2.524550262039931159e+00
3.948850870132446289e+00,2.522998752951473467e+00
3.953852891921997070e+00,2.524956765765758337e+00
3.958850145339965820e+00,2.526450458341891636e+00
3.963849067687988281e+00,2.527970973011371303e+00
3.968847751617431641e+00,2.528977099535119510e+00
3.973850727081298828e+00,2.528425160458703136e+00
3.978846311569213867e+00,2.527973953243965344e+00
3.983849048614501953e+00,2.529187503956258798e+00
3.988847255706787109e+00,2.530057731873718740e+00
3.993850469589233398e+00,2.530728284207377943e+00
3.998847007751464844e+00,2.531000677466473281e+00
4.003845453262329102e+00,2.532773915859927616e+00
4.008843183517456055e+00,2.532375160738844944e+00
4.013848304748535156e+00,2.531318370260998041e+00
4.018952608108520508e+00,2.515706123793855387e+00
4.024073362350463867e+00,2.520471515711726784e+00
4.028403043746948242e+00,2.512623371198579036e+00
4.032392024993896484e+00,2.518866958483095164e+00
4.036388397216796875e+00,2.521283927116862333e+00
4.040388345718383789e+00,2.522930803648329334e+00
4.044386625289916992e+00,2.524560990877269706e+00
4.048387765884399414e+00,2.526747885554776918e+00
4.052384853363037109e+00,2.527390423702052136e+00
4.056391000747680664e+00,2.527711096729170936e+00
4.060386657714843750e+00,2.529462877447948177e+00
4.064385175704956055e+00,2.530577484438119473e+00
4.068385839462280273e+00,2.531745139568464698e+00
4.072384357452392578e+00,2.532285157714504908e+00
4.076383829116821289e+00,2.532101575386711989e+00
4.080383300781250000e+00,2.533333007494569689e+00
4.084383726119995117e+00,2.572933742157666792e+00
4.088383436203002930e+00,2.572925993552922286e+00
4.092383146286010742e+00,2.572737642852978901e+00
4.096381664276123047e+00,2.574749299853956508e+00
4.100381135940551758e+00,2.534457151229041916e+00
4.104382514953613281e+00,2.573802777982089118e+00
4.108382463455200195e+00,2.573609062863476460e+00
4.112381696701049805e+00,2.573756286353622080e+00
4.116381645202636719e+00,2.574401804733491339e+00
4.120423793792724609e+00,2.565595217418100482e+00
4.124455690383911133e+00,2.528807226277259179e+00
4.128833770751953125e+00,2.530474964436884466e+00
4.133812904357910156e+00,2.528211179758450999e+00
4.138798952102661133e+00,2.527876201614880802e+00
4.143799304962158203e+00,2.527735534636442072e+00
4.148803472518920898e+00,2.527780238125352685e+00
4.153807163238525391e+00,2.527256313235320295e+00
4.158801555633544922e+00,2.527314725794163497e+00
4.163799047470092773e+00,2.527782026264909110e+00
4.168797016143798828e+00,2.527914348592084526e+00
4.173805952072143555e+00,2.527956667894919907e+00
4.178799867630004883e+00,2.527224722769823462e+00
4.183799743652343750e+00,2.527706328357020471e+00
4.188797473907470703e+00,2.528115216268922882e+00
4.193808555603027344e+00,2.525797787403796679e+00
4.198798894882202148e+00,2.527675333938042446e+00
4.203799009323120117e+00,2.518623175456902619e+00
4.208793401718139648e+00,2.519016566159316017e+00
4.213800668716430664e+00,2.520596089434157694e+00
4.218797445297241211e+00,2.521813812472082805e+00
4.223946332931518555e+00,2.520773711296762531e+00
4.228588342666625977e+00,2.520705165947099591e+00
4.232378244400024414e+00,2.523547711795295800e+00
4.236376047134399414e+00,2.523224654582101767e+00
4.240372419357299805e+00,2.523261609466267874e+00
4.244373321533203125e+00,2.524730864135130037e+00
4.248372316360473633e+00,2.525011602045488690e+00
4.252372980117797852e+00,2.526187601827097229e+00
4.256371974945068359e+00,2.525783482287345283e+00
4.260370254516601562e+00,2.526085081825862222e+00
4.264371871948242188e+00,2.526972595092367602e+00
4.268370628356933594e+00,2.526798549508875613e+00
4.272369623184204102e+00,2.528010908128131451e+00
4.276369571685791016e+00,2.528249922782173531e+00
4.280369520187377930e+00,2.527369562073893849e+00
4.284370183944702148e+00,2.527293268119486402e+00
4.288368225097656250e+00,2.529005113721503495e+00
4.292370796203613281e+00,2.529299560701794736e+00
4.296368837356567383e+00,2.528869811161734038e+00
4.300366640090942383e+00,2.529696527683320983e+00
4.304367780685424805e+00,2.529750767916532528e+00
4.308366775512695312e+00,2.531382147238510516e+00
4.312366724014282227e+00,2.532378140971438985e+00
4.316366434097290039e+00,2.531904283988986482e+00
4.320364952087402344e+00,2.531732622591569726e+00
4.324481487274169922e+00,2.531680170497914606e+00
4.328541755676269531e+00,2.531174723049965269e+00
4.332796812057495117e+00,2.534294430529407283e+00
4.337785720825195312e+00,2.531252209097410333e+00
4.342787027359008789e+00,2.528053227430966832e+00
4.347791194915771484e+00,2.531030479792413690e+00
4.352785825729370117e+00,2.530835572580763415e+00
4.357792854309082031e+00,2.531069818862655030e+00
4.362787961959838867e+00,2.531444136076466567e+00
4.367786169052124023e+00,2.531760636777953710e+00
4.372782707214355469e+00,2.531857196314000635e+00
4.377788305282592773e+00,2.532595697950803970e+00
4.382784366607666016e+00,2.532395426320484422e+00
4.387783527374267578e+00,2.533251349121492968e+00
4.392781257629394531e+00,2.533202473306950697e+00
4.397786378860473633e+00,2.532515231670764866e+00
4.402781963348388672e+00,2.532849613767816255e+00
4.407782316207885742e+00,2.534623448207789398e+00
4.412780284881591797e+00,2.534328405180979349e+00
4.417784929275512695e+00,2.534931008211494419e+00
4.422804117202758789e+00,2.534329597274016965e+00
4.427870035171508789e+00,2.514273227962640078e+00
4.432547807693481445e+00,2.537651960569853760e+00
4.436530590057373047e+00,2.533821765639992396e+00
4.440529108047485352e+00,2.487286029730562120e+00
4.444555044174194336e+00,2.477429208449030806e+00
4.448558092117309570e+00,2.472054656988937449e+00
4.453305959701538086e+00,2.466380890176402385e+00
4.457216262817382812e+00,2.447666221578862711e+00
4.461426496505737305e+00,2.451871925815573228e+00
4.465412855148315430e+00,2.452690893732415667e+00
4.469374895095825195e+00,2.456065113075389217e+00
4.473396062850952148e+00,2.498909532893840435e+00
4.477379560470581055e+00,2.461652453142697095e+00
4.481503963470458984e+00,2.463714178051254589e+00
4.485435247421264648e+00,2.465750272959503331e+00
4.489548444747924805e+00,2.456325585404108391e+00
4.493533849716186523e+00,2.456077630052284189e+00
4.497480630874633789e+00,2.456257040054445451e+00
4.501406669616699219e+00,2.470640834646324446e+00
4.505414485931396484e+00,2.476370629831627479e+00
4.509404659271240234e+00,2.480184731505481022e+00
4.513399362564086914e+00,2.486215530182782629e+00
4.517436265945434570e+00,2.491398750710338561e+00
4.521485805511474609e+00,2.478986678002676580e+00
4.525432586669921875e+00,2.497828304508722397e+00
4.529054880142211914e+00,2.500101029884937986e+00
4.531538724899291992e+00,2.460980708716000276e+00
4.533522367477416992e+00,2.440356307072199193e+00
4.535506486892700195e+00,2.431818536736790826e+00
4.537518262863159180e+00,2.422790816162922134e+00
4.539507150650024414e+00,2.413816739775745734e+00
4.541510343551635742e+00,2.406620670154174579e+00
4.543508052825927734e+00,2.397978591677974780e+00
4.545513153076171875e+00,2.392216609980656106e+00
4.547506093978881836e+00,2.386009977580306085e+00
4.549563884735107422e+00,2.380160973091241416e+00
4.551543474197387695e+00,2.368625684812746712e+00
4.553516149520874023e+00,2.371044441586070306e+00
4.555510520935058594e+00,2.364242358713431358e+00
4.557555913925170898e+00,2.361931486360012045e+00
4.559531450271606445e+00,2.341491859137041498e+00
4.561512947082519531e+00,2.351817769028874405e+00
4.563505887985229492e+00,2.350685280643138864e+00
4.565506935119628906e+00,2.349928897610771283e+00
4.567503929138183594e+00,2.348960918064226799e+00
4.569554328918457031e+00,2.349444311790980233e+00
4.571499586105346680e+00,2.348287385497973556e+00
4.573506116867065430e+00,2.350772303434884858e+00
4.575515270233154297e+00,2.349683922491541122e+00
4.577536344528198242e+00,2.351426762512536239e+00
4.579599142074584961e+00,2.353901547658627802e+00
4.581557035446166992e+00,2.343438547067469013e+00
4.583565235137939453e+00,2.331809679485521425e+00
4.585565328598022461e+00,2.303282297048842686e+00
4.587784528732299805e+00,2.295579587886284134e+00
4.590016365051269531e+00,2.292196427845528905e+00
4.592765092849731445e+00,2.286527429405144307e+00
4.595087528228759766e+00,2.306170142432468317e+00
4.597833871841430664e+00,2.289783631537393394e+00
4.600625991821289062e+00,2.272141250627190079e+00
4.602627992630004883e+00,2.265444667988379734e+00
4.604560852050781250e+00,2.315970339294712410e+00
4.606507301330566406e+00,2.326922694077812714e+00
4.608494043350219727e+00,2.337035219315912737e+00
4.610533475875854492e+00,2.345125358715696162e+00
4.612540483474731445e+00,2.334446589284728812e+00
4.614527225494384766e+00,2.362364812179185591e+00
4.616508960723876953e+00,2.373176499983847165e+00
4.618530988693237305e+00,2.390278266701491461e+00
4.620501995086669922e+00,2.393242406039524983e+00
4.622505426406860352e+00,2.410406757641644138e+00
4.624540328979492188e+00,2.418820550301140404e+00
4.626575231552124023e+00,2.409393478559670232e+00
4.628486156463623047e+00,2.441248588710855039e+00
4.630492448806762695e+00,2.493224441197448016e+00
4.632475852966308594e+00,2.511235774902793594e+00
4.634503364562988281e+00,2.530728880253896751e+00
4.636479854583740234e+00,2.539333407799411635e+00
4.638486146926879883e+00,2.556723064985640725e+00
4.640473127365112305e+00,2.575689265214117007e+00
4.642495155334472656e+00,2.591412376333758427e+00
4.644475460052490234e+00,2.598705601537895316e+00
4.646485090255737305e+00,2.615618421509077862e+00
4.648475170135498047e+00,2.628112748636334928e+00
4.650484323501586914e+00,2.640293555294698891e+00
4.652473926544189453e+00,2.650993782400343779e+00
4.654489994049072266e+00,2.662259061605818378e+00
4.656474590301513672e+00,2.669524272623571282e+00
4.658483266830444336e+00,2.680296025311473151e+00
4.660473346710205078e+00,2.687898598658871485e+00
4.662482023239135742e+00,2.695772969218846349e+00
4.664473295211791992e+00,2.702319944181435396e+00
4.666482686996459961e+00,2.709110702170217433e+00
4.668473243713378906e+00,2.714402403164196453e+00
4.670482873916625977e+00,2.719244089036475298e+00
4.672474861145019531e+00,2.722414460470016007e+00
4.674483776092529297e+00,2.726492014705182765e+00
4.676471710205078125e+00,2.729036537293974884e+00
4.678479433059692383e+00,2.732631889895425825e+00
4.680472135543823242e+00,2.733103362691803095e+00
4.682481527328491211e+00,2.733931271306427657e+00
4.684471130371093750e+00,2.735220519926610194e+00
4.686480522155761719e+00,2.735718814816333833e+00
4.688471555709838867e+00,2.735503045976525271e+00
4.690480709075927734e+00,2.733606425953677199e+00
4.692471265792846680e+00,2.732954947108619859e+00
4.694482326507568359e+00,2.732235518960418386e+00
4.696470499038696289e+00,2.729380456135327204e+00
4.698480844497680664e+00,2.728427973798271733e+00
4.700470447540283203e+00,2.724259224445727323e+00
4.702503204345703125e+00,2.721227731851068921e+00
4.704462766647338867e+00,2.716565455980951338e+00
4.706470251083374023e+00,2.713407601524305601e+00
4.708459854125976562e+00,2.709971393343376445e+00
4.710468053817749023e+00,2.705683434687070399e+00
4.712458610534667969e+00,2.700896585094521463e+00
4.714467287063598633e+00,2.695859395964073535e+00
4.716458559036254883e+00,2.691703759634942905e+00
4.718466997146606445e+00,2.685848794680690155e+00
4.720462560653686523e+00,2.680722198572421000e+00
4.722468137741088867e+00,2.674256285936389865e+00
4.724458694458007812e+00,2.669989784954760470e+00
4.726466655731201172e+00,2.664106805814123735e+00
4.728465557098388672e+00,2.658102829230168940e+00
4.730469942092895508e+00,2.646711188162707007e+00
4.732456684112548828e+00,2.643948512548031093e+00
4.734466314315795898e+00,2.638883905277717545e+00
4.736530065536499023e+00,2.632966355438989936e+00
4.738468170166015625e+00,2.626519516291560663e+00
4.740462064743041992e+00,2.622121289029275104e+00
4.742469549179077148e+00,2.616041018490912862e+00
4.744456768035888672e+00,2.610509110749854145e+00
4.746465444564819336e+00,2.605895114647759581e+00
4.748455762863159180e+00,2.599520397129106097e+00
4.750464677810668945e+00,2.595371913358201166e+00
4.752455472946166992e+00,2.590043257480056038e+00
4.754463911056518555e+00,2.584787915323724317e+00
4.756454706192016602e+00,2.579538533632580677e+00
4.758464574813842773e+00,2.575131961719031359e+00
4.760459184646606445e+00,2.565935559980339953e+00
4.762468338012695312e+00,2.564044900422680406e+00
4.764455080032348633e+00,2.560313649214941201e+00
4.766461372375488281e+00,2.556304044282918575e+00
4.768454074859619141e+00,2.551995820044973051e+00
4.770462274551391602e+00,2.548727100935828993e+00
4.772451400756835938e+00,2.544057076460966460e+00
4.774522542953491211e+00,2.540614907814849222e+00
4.776454210281372070e+00,2.533483211217309350e+00
4.778463363647460938e+00,2.533741299359953292e+00
4.780458211898803711e+00,2.529435459308083001e+00
4.782465219497680664e+00,2.524761858554108063e+00
4.784453630447387695e+00,2.523255649001079792e+00
4.786461114883422852e+00,2.520776095482837764e+00
4.788452386856079102e+00,2.517937125913754404e+00
4.790461778640747070e+00,2.516041697983944392e+00
4.792452573776245117e+00,2.511473001417279249e+00
4.794460058212280273e+00,2.509140075342664034e+00
4.796451807022094727e+00,2.507981956956619740e+00
4.798459291458129883e+00,2.505888641582565413e+00
4.800455331802368164e+00,2.504131496445118898e+00
4.802462339401245117e+00,2.500917017569186385e+00
4.804451942443847656e+00,2.499752342671435201e+00
4.806460618972778320e+00,2.499688565693922726e+00
4.808451414108276367e+00,2.497208416129161890e+00
4.810460567474365234e+00,2.496948539846961523e+00
4.812449932098388672e+00,2.495154439825348902e+00
4.814458847045898438e+00,2.494982182381413338e+00
4.816450357437133789e+00,2.493347822826841309e+00
4.818458557128906250e+00,2.493999897718417458e+00
4.820454359054565430e+00,2.493134438173107981e+00
4.822459459304809570e+00,2.491558491177379153e+00
4.824449777603149414e+00,2.491874395832347489e+00
4.826458930969238281e+00,2.491870223506715831e+00
4.828449487686157227e+00,2.492072283276591804e+00
4.830459356307983398e+00,2.491614519550147122e+00
4.832448482513427734e+00,2.492280303511655859e+00
4.834456682205200195e+00,2.492745815842845047e+00
4.836448192596435547e+00,2.492925225845006310e+00
4.838456153869628906e+00,2.493465243991046520e+00
4.840451955795288086e+00,2.494433223537591005e+00
4.842458724975585938e+00,2.494833766798230101e+00
4.844448566436767578e+00,2.495868503554881102e+00
4.846457481384277344e+00,2.496539651935059112e+00
4.848447561264038086e+00,2.497021853568774929e+00
4.850456714630126953e+00,2.497566044040446798e+00
4.852447271347045898e+00,2.498145997303247157e+00
4.854456901550292969e+00,2.500071227558997577e+00
4.856446981430053711e+00,2.499711215461637437e+00
4.858454942703247070e+00,2.501160204548860122e+00
4.860449790954589844e+00,2.502274215492512610e+00
4.862457275390625000e+00,2.502888739453403844e+00
4.864447116851806641e+00,2.503233850387793780e+00
4.866455554962158203e+00,2.505008876920804539e+00
4.868446350097656250e+00,2.506068051584726675e+00
4.870455026626586914e+00,2.507673800906395911e+00
4.872445821762084961e+00,2.508008183003447300e+00
4.874454736709594727e+00,2.509956063026912432e+00
4.876445531845092773e+00,2.510287464891369780e+00
4.878454685211181641e+00,2.510028780702207030e+00
4.880448341369628906e+00,2.512399853754025969e+00
4.882455587387084961e+00,2.508545220916893470e+00
4.884445905685424805e+00,2.513519825162866539e+00
4.886456489562988281e+00,2.489302455103690193e+00
4.888444662094116211e+00,2.505005300641691690e+00
4.890444755554199219e+00,2.506535352055472288e+00
4.892444610595703125e+00,2.507548631137446193e+00
4.894444704055786133e+00,2.508829535106364972e+00
4.896443367004394531e+00,2.510412634660319497e+00
4.898442983627319336e+00,2.512012423516800652e+00
4.900444984436035156e+00,2.512820662596304544e+00
4.902443885803222656e+00,2.514610590292285508e+00
4.904443502426147461e+00,2.516102494728862826e+00
4.906443119049072266e+00,2.517637910561312697e+00
4.908442497253417969e+00,2.519504132211701108e+00
4.910443305969238281e+00,2.519899907100189740e+00
4.912442445755004883e+00,2.521059217579271650e+00
4.914443254470825195e+00,2.522225680616579258e+00
4.916442155838012695e+00,2.522006335497657847e+00
4.918442726135253906e+00,2.524295154129881258e+00
4.920443773269653320e+00,2.516071500309884801e+00
4.922442674636840820e+00,2.524023952963823536e+00
4.924441576004028320e+00,2.524948421114495023e+00
4.926441192626953125e+00,2.525552216238047709e+00
4.928440809249877930e+00,2.527242604165387707e+00
4.930444478988647461e+00,2.529297176515719503e+00
4.932440519332885742e+00,2.527485791145061444e+00
4.934441089630126953e+00,2.529728118148817817e+00
4.936440706253051758e+00,2.530207339549939594e+00
4.938440084457397461e+00,2.531662885148869169e+00
4.940442800521850586e+00,2.532697025859001361e+00
4.942440509796142578e+00,2.534547154253381951e+00
4.944439649581909180e+00,2.534109060062057939e+00
4.946439266204833984e+00,2.535680834732155109e+00
4.948438882827758789e+00,2.536812131024853034e+00
4.950439929962158203e+00,2.537917201270723400e+00
4.952439546585083008e+00,2.537838523130240720e+00
4.954439878463745117e+00,2.539155785936806797e+00
4.956437826156616211e+00,2.539932434550813856e+00
4.958439111709594727e+00,2.540909354795140462e+00
4.960442066192626953e+00,2.542508547605102809e+00
4.962440490722656250e+00,2.542361920161475997e+00
4.964438199996948242e+00,2.542311256207377301e+00
4.966438293457031250e+00,2.544013565065093463e+00
4.968437671661376953e+00,2.540163700600111429e+00
4.970438241958618164e+00,2.542432849697214170e+00
4.972436428070068359e+00,2.544023101809394394e+00
4.974437713623046875e+00,2.543763225527194027e+00
4.976436376571655273e+00,2.544882600889515789e+00
4.978438138961791992e+00,2.545429175547262890e+00
4.980435371398925781e+00,2.546335762302370131e+00
4.982440948486328125e+00,2.547340100686562359e+00
4.984436988830566406e+00,2.547493880688414869e+00
4.986437082290649414e+00,2.547452157432098296e+00
4.988435029983520508e+00,2.547809189296864396e+00
4.990436792373657227e+00,2.548151916045179100e+00
4.992434501647949219e+00,2.548684185586474804e+00
4.994436502456665039e+00,2.546854322773733248e+00
4.996434688568115234e+00,2.547493284641896061e+00
4.998435974121093750e+00,2.546958630914525124e+00
5.000434160232543945e+00,2.547530239526062168e+00
5.002437829971313477e+00,2.547400301384961985e+00
5.004434347152709961e+00,2.548103040230636829e+00
5.006434917449951172e+00,2.547684615574433487e+00
5.008433341979980469e+00,2.546847170215507550e+00
5.010434865951538086e+00,2.546902006495238346e+00
5.012433052062988281e+00,2.546900218355681922e+00
5.014435052871704102e+00,2.546631997422217797e+00
5.016432762145996094e+00,2.546449607187462494e+00
5.018434762954711914e+00,2.546605175328871429e+00
5.020432233810424805e+00,2.546521728816238284e+00
5.022438764572143555e+00,2.545470898803579463e+00
5.024433851242065430e+00,2.544142907159674838e+00
5.026436805725097656e+00,2.545141285078678539e+00
5.028443574905395508e+00,2.544077938089124746e+00
5.030437946319580078e+00,2.541036908750165413e+00
5.032432079315185547e+00,2.542705242956309508e+00
5.034433126449584961e+00,2.543345396917509493e+00
5.036431789398193359e+00,2.543376391336487519e+00
5.038432836532592773e+00,2.542999689936600749e+00
5.040431261062622070e+00,2.542510931791178042e+00
5.042439222335815430e+00,2.542287414346624974e+00
5.044432640075683594e+00,2.542093103181493507e+00
5.046433687210083008e+00,2.542132442251734847e+00
5.048431158065795898e+00,2.537934486619768837e+00
5.050437688827514648e+00,2.540617292000924454e+00
5.052431583404541016e+00,2.539178435704521508e+00
5.054431915283203125e+00,2.539490168033858186e+00
5.056431770324707031e+00,2.537570898243295847e+00
5.058431625366210938e+00,2.538684909186948335e+00
5.060431718826293945e+00,2.538257543832962870e+00
5.062437772750854492e+00,2.534923259606749912e+00
5.064431190490722656e+00,2.518614234759120496e+00
5.066432476043701172e+00,2.520067992218493647e+00
5.068429708480834961e+00,2.520867886646734224e+00
5.070431232452392578e+00,2.521819176890752079e+00
5.072428703308105469e+00,2.521847787123654872e+00
5.074430465698242188e+00,2.522990408300210152e+00
5.076429605484008789e+00,2.522459330851952064e+00
5.078438520431518555e+00,2.524243894129263754e+00
5.080423831939697266e+00,2.524922195067667463e+00
5.082434177398681641e+00,2.524935308091081243e+00
5.084429264068603516e+00,2.524258795292233959e+00
5.086430549621582031e+00,2.525545063679822011e+00
5.088428020477294922e+00,2.526062432058147511e+00
5.090428829193115234e+00,2.526381316945709887e+00
5.092428684234619141e+00,2.525029483441052935e+00
5.094432592391967773e+00,2.526030245546131869e+00
5.096425294876098633e+00,2.524223628547624276e+00
5.098429679870605469e+00,2.521709504331291374e+00
5.100426912307739258e+00,2.522265019686820597e+00
5.102469205856323242e+00,2.523622813656665631e+00
5.104429244995117188e+00,2.520248594313692525e+00
5.106429338455200195e+00,2.524778547856634692e+00
5.108426809310913086e+00,2.524817886926876032e+00
5.110427141189575195e+00,2.525441351585549388e+00
5.112426996231079102e+00,2.525717917170276383e+00
5.114427804946899414e+00,2.526194158338804119e+00
5.116425514221191406e+00,2.527036372069880077e+00
5.118482112884521484e+00,2.527640763239951571e+00
5.120447874069213867e+00,2.495622932389132131e+00
5.122429132461547852e+00,2.509437502555549315e+00
5.124426603317260742e+00,2.520003023147943555e+00
5.126425743103027344e+00,2.521719041075592305e+00
5.128426313400268555e+00,2.520578208038593448e+00
5.130428552627563477e+00,2.522758546204393770e+00
5.132425308227539062e+00,2.520986499903977052e+00
5.134424924850463867e+00,2.523299756443471598e+00
5.136424064636230469e+00,2.523912492264806406e+00
5.138423919677734375e+00,2.526284757409662962e+00
5.140428066253662109e+00,2.526106539500539316e+00
5.142426013946533203e+00,2.526929083696494605e+00
5.144424438476562500e+00,2.527430954865331092e+00
5.146424531936645508e+00,2.529139820234754144e+00
5.148422241210937500e+00,2.530220452573353374e+00
5.150424003601074219e+00,2.530156675595840898e+00
5.152422666549682617e+00,2.530608478857097499e+00
5.154423952102661133e+00,2.531888786779497469e+00
5.156421422958374023e+00,2.533019487025676586e+00
5.158422946929931641e+00,2.533299628889516431e+00
5.160424947738647461e+00,2.533778850290638207e+00
5.162423849105834961e+00,2.534343306343949553e+00
5.164421081542968750e+00,2.533742491452990908e+00
5.166422843933105469e+00,2.534634177045127945e+00
5.168420791625976562e+00,2.535625402405905948e+00
5.170422315597534180e+00,2.534992997049450469e+00
5.172420978546142578e+00,2.535373870774968896e+00
5.174422502517700195e+00,2.535606328917304086e+00
5.176420211791992188e+00,2.535105649841505215e+00
5.178421258926391602e+00,2.535953824037769255e+00
5.180418252944946289e+00,2.536337677995881723e+00
5.182424783706665039e+00,2.536239330320278373e+00
5.184796333312988281e+00,2.536059920318117111e+00
5.186747789382934570e+00,2.516656817991354433e+00
5.189436674118041992e+00,2.493312060035712818e+00
5.191420793533325195e+00,2.518821062901146934e+00
5.193660974502563477e+00,2.520780267808469421e+00
5.196420669555664062e+00,2.493062912590850999e+00
5.198421478271484375e+00,2.508230508354962751e+00
5.200422525405883789e+00,2.511073054203158961e+00
5.202422142028808594e+00,2.512615026547315722e+00
5.204417943954467773e+00,2.513916792144392787e+00
5.206420183181762695e+00,2.515087427507332052e+00
5.208417177200317383e+00,2.516373099848401740e+00
5.210419893264770508e+00,2.518651189643286603e+00
5.212417364120483398e+00,2.519324126163021038e+00
5.214419126510620117e+00,2.520608010364533857e+00
5.216416597366333008e+00,2.522378268525394152e+00
5.218418359756469727e+00,2.523175778767559496e+00
5.220421314239501953e+00,2.524590197156691307e+00
5.222419261932373047e+00,2.525892558800287180e+00
5.224416494369506836e+00,2.527247372537538173e+00
5.226417779922485352e+00,2.520613970829721939e+00
5.228415966033935547e+00,2.519886198030257152e+00
5.230417490005493164e+00,2.521746459215457481e+00
5.232415437698364258e+00,2.523147168534656704e+00
5.234417676925659180e+00,2.524735036460761695e+00
5.236415624618530273e+00,2.526501122295990331e+00
5.238416433334350586e+00,2.526834908346522912e+00
5.240442514419555664e+00,2.528011504174650259e+00
5.242420434951782227e+00,2.528609338833014863e+00
5.244414329528808594e+00,2.530196014666082238e+00
5.246415853500366211e+00,2.530795637464003267e+00
5.248414278030395508e+00,2.524685564599700616e+00
5.250416278839111328e+00,2.528106275571140760e+00
5.252414464950561523e+00,2.528590861390931810e+00
5.254415988922119141e+00,2.529704872334584298e+00
5.256412982940673828e+00,2.530646029787782414e+00
5.258414983749389648e+00,2.532399598646116079e+00
5.260412216186523438e+00,2.532753054231769330e+00
5.262418746948242188e+00,2.534160320062675442e+00
5.264413595199584961e+00,2.535028759840578960e+00
5.266414880752563477e+00,2.535618249847680250e+00
5.268412113189697266e+00,2.533151213306333194e+00
5.270414113998413086e+00,2.528324428597024554e+00
5.272413253784179688e+00,2.529875341638963437e+00
5.274415493011474609e+00,2.529328766981216337e+00
5.276411771774291992e+00,2.531103793514227096e+00
5.278414249420166016e+00,2.530939880721554847e+00
5.280414342880249023e+00,2.532870475395974541e+00
5.282438516616821289e+00,2.534246150761383820e+00
5.284412145614624023e+00,2.534566227741983813e+00
5.286412954330444336e+00,2.536281053576594946e+00
5.288410425186157227e+00,2.537319962658877603e+00
5.290412664413452148e+00,2.530542913740028599e+00
5.292410850524902344e+00,2.534978691932999073e+00
5.294412374496459961e+00,2.535659973103996823e+00
5.296410322189331055e+00,2.536360923810115242e+00
5.298412322998046875e+00,2.536190454505736103e+00
5.300409793853759766e+00,2.538883988724230267e+00
5.302416801452636719e+00,2.539738123385682389e+00
5.304410696029663086e+00,2.539320890822516663e+00
5.306411504745483398e+00,2.540319864788039173e+00
5.308411598205566406e+00,2.541007106424225004e+00
5.310411214828491211e+00,2.537442748241752088e+00
5.312408447265625000e+00,2.533825937965624053e+00
5.314410448074340820e+00,2.535854284269128289e+00
5.316408872604370117e+00,2.536550466603096243e+00
5.318410396575927734e+00,2.537550036615137561e+00
5.320408821105957031e+00,2.538108532203260825e+00
5.322414398193359375e+00,2.539328639427261169e+00
5.324409246444702148e+00,2.539619510128439561e+00
5.326409816741943359e+00,2.540636961536045124e+00
5.328407764434814453e+00,2.541094129215970998e+00
5.330411911010742188e+00,2.541680638990478247e+00
5.332409381866455078e+00,2.530784312580145912e+00
5.334409475326538086e+00,2.538233701972210543e+00
5.336407899856567383e+00,2.537414138008849296e+00
5.338407993316650391e+00,2.538968627329901029e+00
5.340407609939575195e+00,2.539496128499046268e+00
5.342412233352661133e+00,2.540703122699632832e+00
5.344408750534057617e+00,2.540663187582872684e+00
5.346408843994140625e+00,2.542093699228012316e+00
5.348407506942749023e+00,2.541811173178097238e+00
5.350407838821411133e+00,2.542485897837388098e+00
5.352405548095703125e+00,2.538954322213449633e+00
5.354407072067260742e+00,2.537632291034733090e+00
5.356405496597290039e+00,2.539723222222712185e+00
5.358406782150268555e+00,2.540368144556062635e+00
5.360404491424560547e+00,2.539679114780320379e+00
