time_s,voltage_v
1.995563507080078125e-03,2.359715981449602040e+00
4.021644592285156250e-03,2.364227457550461153e+00
5.954742431640625000e-03,2.362485213575984844e+00
8.041620254516601562e-03,2.364822908022750525e+00
1.003742218017578125e-02,2.360018773081156596e+00
1.199412345886230469e-02,2.364082618246390766e+00
1.401495933532714844e-02,2.362981720326152058e+00
1.594901084899902344e-02,2.366045399432826102e+00
1.800894737243652344e-02,2.368489190159939639e+00
1.999187469482421875e-02,2.374196335577527961e+00
2.200341224670410156e-02,2.376706287468229206e+00
2.394056320190429688e-02,2.381750033110384024e+00
2.600264549255371094e-02,2.382956431264451780e+00
2.793526649475097656e-02,2.389892624603822568e+00
3.000116348266601562e-02,2.394050645119028875e+00
3.192639350891113281e-02,2.399176645180779222e+00
3.399729728698730469e-02,2.402126479402360903e+00
3.600072860717773438e-02,2.407514739932386849e+00
3.795504570007324219e-02,2.411099959743018051e+00
4.007625579833984375e-02,2.420492460786397348e+00
4.201483726501464844e-02,2.419088771234604085e+00
4.394364356994628906e-02,2.427653959709878073e+00
4.601168632507324219e-02,2.430447033697013204e+00
4.794669151306152344e-02,2.438705258215100535e+00
5.000567436218261719e-02,2.440040998463749666e+00
5.193138122558593750e-02,2.446572476216849701e+00
5.400753021240234375e-02,2.450490289984975867e+00
5.593085289001464844e-02,2.456486517964186600e+00
5.799508094787597656e-02,2.462570960828180500e+00
6.000089645385742188e-02,2.467310722745743146e+00
6.192421913146972656e-02,2.472505268157156433e+00
6.403088569641113281e-02,2.476982173559924671e+00
6.597352027893066406e-02,2.478328642645912350e+00
6.803703308105468750e-02,2.484116850390058584e+00
6.996870040893554688e-02,2.479964790340040803e+00
7.215714454650878906e-02,2.491672336062471516e+00
7.422471046447753906e-02,2.488748131841198585e+00
7.707095146179199219e-02,2.482688722930994185e+00
7.930970191955566406e-02,2.484349904578912582e+00
8.201265335083007812e-02,2.485795317387022862e+00
8.404636383056640625e-02,2.495053707963670320e+00
8.706974983215332031e-02,2.460707123363867321e+00
8.904719352722167969e-02,2.455135280506048456e+00
9.095692634582519531e-02,2.485896049248701445e+00
9.286713600158691406e-02,2.493805586553285991e+00
9.485626220703125000e-02,2.499532997552513791e+00
9.688949584960937500e-02,2.506062091119538593e+00
9.890198707580566406e-02,2.490992843031030191e+00
1.008846759796142578e-01,2.501669824322441116e+00
1.028635501861572266e-01,2.502098381769464197e+00
1.048851013183593750e-01,2.514435948662274711e+00
1.068663597106933594e-01,2.513877453074151447e+00
1.088712215423583984e-01,2.522849145275252614e+00
1.108984947204589844e-01,2.529162470002468854e+00
1.129872798919677734e-01,2.529431286982451343e+00
1.149530410766601562e-01,2.501335442225389727e+00
1.169068813323974609e-01,2.529223266747387289e+00
1.189100742340087891e-01,2.532503310740388702e+00
1.209156513214111328e-01,2.540055816180207149e+00
1.228642463684082031e-01,2.539785211060668235e+00
1.248416900634765625e-01,2.590500425159981912e+00
1.268346309661865234e-01,2.608319831886271256e+00
1.288430690765380859e-01,2.626198247217923054e+00
1.308383941650390625e-01,2.638070897826063188e+00
1.328380107879638672e-01,2.653575855919820814e+00
1.348371505737304688e-01,2.666415890027986624e+00
1.368367671966552734e-01,2.678232512263359233e+00
1.388363838195800781e-01,2.691096388232277370e+00
1.408367156982421875e-01,2.702334249297886792e+00
1.428363323211669922e-01,2.712847913843144720e+00
1.448404788970947266e-01,2.722482409773160139e+00
1.468362808227539062e-01,2.725950804466104938e+00
1.488435268402099609e-01,2.736121742263048162e+00
1.508362293243408203e-01,2.739389865325673412e+00
1.528360843658447266e-01,2.747854917985787182e+00
1.548347473144531250e-01,2.753731936661235835e+00
1.568360328674316406e-01,2.761763663502176058e+00
1.588349342346191406e-01,2.766377659604270622e+00
1.608355045318603516e-01,2.771329614082528980e+00
1.628351211547851562e-01,2.774797412728954971e+00
1.648352146148681641e-01,2.777222726013985454e+00
1.668343544006347656e-01,2.778179976723191391e+00
1.688344478607177734e-01,2.780953977221724660e+00
1.708338260650634766e-01,2.781280014667512734e+00
1.728346347808837891e-01,2.782935235850243050e+00
1.748330593109130859e-01,2.783065770037862041e+00
1.768341064453125000e-01,2.784370515867533147e+00
1.788325309753417969e-01,2.783554528183284749e+00
1.808331012725830078e-01,2.782937023989799474e+00
1.828334331512451172e-01,2.780870530709091515e+00
1.848318576812744141e-01,2.778867814405896031e+00
1.868298053741455078e-01,2.775647971111294243e+00
1.888372898101806641e-01,2.774694892727719964e+00
1.908340454101562500e-01,2.768913241495280619e+00
1.928322315216064453e-01,2.767474981245396481e+00
1.948316097259521484e-01,2.764256926090350674e+00
1.968319416046142578e-01,2.760463686044655418e+00
1.988317966461181641e-01,2.755626768544527039e+00
2.008311748504638672e-01,2.752063006408572932e+00
2.028310298919677734e-01,2.746996014952184595e+00
2.048313617706298828e-01,2.741731136051551943e+00
2.068312168121337891e-01,2.737451522046509211e+00
2.088313102722167969e-01,2.732187239192394923e+00
2.108304500579833984e-01,2.728733745662420329e+00
2.128307819366455078e-01,2.723197665595729955e+00
2.148294448852539062e-01,2.717373695060455230e+00
2.168302536010742188e-01,2.711594428014091118e+00
2.188303470611572266e-01,2.704369748159617171e+00
2.208299636840820312e-01,2.699427330425659299e+00
2.228293418884277344e-01,2.694859825952032217e+00
2.248294353485107422e-01,2.688798032855753029e+00
2.268357276916503906e-01,2.683735809771515157e+00
2.288289070129394531e-01,2.677076182016871364e+00
2.308287620544433594e-01,2.671828588465283705e+00
2.328293323516845703e-01,2.665704210484529657e+00
2.348282337188720703e-01,2.659811098553073183e+00
2.368288040161132812e-01,2.653873879179224904e+00
2.388274669647216797e-01,2.648696619116857054e+00
2.408287525177001953e-01,2.643934803478098505e+00
2.428274154663085938e-01,2.637570218750264317e+00
2.448282241821289062e-01,2.633198813581325126e+00
2.468276023864746094e-01,2.627744391887711473e+00
2.488279342651367188e-01,2.622409179497859455e+00
2.508277893066406250e-01,2.616675808033443573e+00
2.528278827667236328e-01,2.611046744709819123e+00
2.548289299011230469e-01,2.606290293489729404e+00
2.568271160125732422e-01,2.603194427871039718e+00
2.588262557983398438e-01,2.597739410130907256e+00
2.608251571655273438e-01,2.594119619622185180e+00
2.628235816955566406e-01,2.589457343752067597e+00
2.648279666900634766e-01,2.585025737884728780e+00
2.668259143829345703e-01,2.578682610831572131e+00
2.688252925872802734e-01,2.576061198241853312e+00
2.708256244659423828e-01,2.571583100746047457e+00
2.728252410888671875e-01,2.568047352796477334e+00
2.748250961303710938e-01,2.565517731370655419e+00
2.768254280090332031e-01,2.562681145987647291e+00
2.788245677947998047e-01,2.560703463638241750e+00
2.808244228363037109e-01,2.556814260103018377e+00
2.828235626220703125e-01,2.553364938898675440e+00
2.848246097564697266e-01,2.550430601886582771e+00
2.868242263793945312e-01,2.547280496034681541e+00
2.888238430023193359e-01,2.545950716251220047e+00
2.908234596252441406e-01,2.544468348558944104e+00
2.928271293640136719e-01,2.542395298766529255e+00
2.948222160339355469e-01,2.539027039888744230e+00
2.968235015869140625e-01,2.537250225216177046e+00
2.988226413726806641e-01,2.535340492169915638e+00
3.008229732513427734e-01,2.534402910995830371e+00
3.028361797332763672e-01,2.532120052828795043e+00
3.048257827758789062e-01,2.530380193040393966e+00
3.068239688873291016e-01,2.530706826532700848e+00
3.088235855102539062e-01,2.529223266747387289e+00
3.108232021331787109e-01,2.529012862326248001e+00
3.128232955932617188e-01,2.528449598365974271e+00
3.148224353790283203e-01,2.527092996489166854e+00
3.168220520019531250e-01,2.526540461366231671e+00
3.188223838806152344e-01,2.525425854376060375e+00
3.208222389221191406e-01,2.523864808543301752e+00
3.228216171264648438e-01,2.525109949721092040e+00
3.248214721679687500e-01,2.524316611804558352e+00
3.268213272094726562e-01,2.525814476706323308e+00
3.288209438323974609e-01,2.525310817397930396e+00
3.308205604553222656e-01,2.524096074592599326e+00
3.328204154968261719e-01,2.525088492046414945e+00
3.348202705383300781e-01,2.524161639709668226e+00
3.368213176727294922e-01,2.524729672042092421e+00
3.388214111328125000e-01,2.525840702753150868e+00
3.408207893371582031e-01,2.526091042291050304e+00
3.428194522857666016e-01,2.527122202768588455e+00
3.448197841644287109e-01,2.528536621157720266e+00
3.468198776245117188e-01,2.528666559298820449e+00
3.488237857818603516e-01,2.528233233479646902e+00
3.508200645446777344e-01,2.523780169937630991e+00
3.528196811676025391e-01,2.527273002537846924e+00
3.548195362091064453e-01,2.528042498593628284e+00
3.568193912506103516e-01,2.528937164418359362e+00
3.588190078735351562e-01,2.530209723736014826e+00
3.608198165893554688e-01,2.532287541900580141e+00
3.628189563751220703e-01,2.533124391212986826e+00
3.648183345794677734e-01,2.533707324708381226e+00
3.668172359466552734e-01,2.534880344257395723e+00
3.688178062438964844e-01,2.534737293092881760e+00
3.708169460296630859e-01,2.535260621936395342e+00
3.728182315826416016e-01,2.537632291034733090e+00
3.748168945312500000e-01,2.536636297301804621e+00
3.768174648284912109e-01,2.538914387096689484e+00
3.788175582885742188e-01,2.540606563163585907e+00
3.808178901672363281e-01,2.541362946195953487e+00
3.828170299530029297e-01,2.542286222253587358e+00
3.848173618316650391e-01,2.542679612956000756e+00
3.868162631988525391e-01,2.543929522505941510e+00
3.888168334960937500e-01,2.544794982051250987e+00
3.908159732818603516e-01,2.546459739978282233e+00
3.928160667419433594e-01,2.546816175796529524e+00
3.948152065277099609e-01,2.547529047433024552e+00
3.968160152435302734e-01,2.547964161391754523e+00
3.988153934478759766e-01,2.548644846516233464e+00
4.008150100708007812e-01,2.549084728847113901e+00
4.028151035308837891e-01,2.549344605129314267e+00
4.048149585723876953e-01,2.549264734895793971e+00
4.068143367767333984e-01,2.550772732588378666e+00
4.088149070739746094e-01,2.551377719804968969e+00
4.108138084411621094e-01,2.552816576101371915e+00
4.128143787384033203e-01,2.553828067043789396e+00
4.148139953613281250e-01,2.553026980522511202e+00
4.168145656585693359e-01,2.553933567277618444e+00
4.188137054443359375e-01,2.553899592626046378e+00
4.208140373229980469e-01,2.554896778452012462e+00
4.228134155273437500e-01,2.555918998231768491e+00
4.248130321502685547e-01,2.556650943356864936e+00
4.268133640289306641e-01,2.558691806637264143e+00
4.288127422332763672e-01,2.558539218728449249e+00
4.308130741119384766e-01,2.558359808726287987e+00
4.328124523162841797e-01,2.559484548507279023e+00
4.348118305206298828e-01,2.559613890601860398e+00
4.368119239807128906e-01,2.559918470372971377e+00
4.388127326965332031e-01,2.559694356881899502e+00
4.408125877380371094e-01,2.560926981082794818e+00
4.428124427795410156e-01,2.561784692023359788e+00
4.448127746582031250e-01,2.563345141809599603e+00
4.468114376068115234e-01,2.563647933441154159e+00
4.488120079040527344e-01,2.562764592500280436e+00
4.508113861083984375e-01,2.563921518793287113e+00
4.528110027313232422e-01,2.564338155309934031e+00
4.548103809356689453e-01,2.564288683448872952e+00
4.568142890930175781e-01,2.565258451134973861e+00
4.588098526000976562e-01,2.564989038108472563e+00
4.608108997344970703e-01,2.566169806262231567e+00
4.628105163574218750e-01,2.566386767195077745e+00
4.648101329803466797e-01,2.566461273009928767e+00
4.668095111846923828e-01,2.566523857894403626e+00
4.688103199005126953e-01,2.565248318344154121e+00
4.708092212677001953e-01,2.565498061835534749e+00
4.728095531463623047e-01,2.566769429060152596e+00
4.748091697692871094e-01,2.566979833481291884e+00
4.768092632293701172e-01,2.565799065327532880e+00
4.788088798522949219e-01,2.567944236748723519e+00
4.808084964752197266e-01,2.566949435108832667e+00
4.828083515167236328e-01,2.566662736733285932e+00
4.848091602325439453e-01,2.567345806043840106e+00
4.868080615997314453e-01,2.566572137662427089e+00
4.888083934783935547e-01,2.566236563472338084e+00
4.908089637756347656e-01,2.565945096724640884e+00
4.928085803985595703e-01,2.564302988565324348e+00
4.948074817657470703e-01,2.565779395792412210e+00
4.968075752258300781e-01,2.565648861604793218e+00
4.988074302673339844e-01,2.565723367419644241e+00
5.008065700531005859e-01,2.564300604379249116e+00
5.028069019317626953e-01,2.563849397164511323e+00
5.048069953918457031e-01,2.564988442061953755e+00
5.068070888519287109e-01,2.564676709732617077e+00
5.088069438934326172e-01,2.564111657632786923e+00
5.108070373535156250e-01,2.565521903696287076e+00
5.128064155578613281e-01,2.564745255082280018e+00
5.148060321807861328e-01,2.564577169963976111e+00
5.168051719665527344e-01,2.563619323208251366e+00
5.188028812408447266e-01,2.562655515987338539e+00
5.208094120025634766e-01,2.563176460644776888e+00
5.228064060211181641e-01,2.560898966896410833e+00
5.248069763183593750e-01,2.561759658069569845e+00
5.268056392669677734e-01,2.558955259198577359e+00
5.288050174713134766e-01,2.559786148045795962e+00
5.308051109313964844e-01,2.559855885488496519e+00
5.328047275543212891e-01,2.558806247568875314e+00
5.348050594329833984e-01,2.558904595244478664e+00
5.368039608001708984e-01,2.557714886392937537e+00
5.388042926788330078e-01,2.559062547571962831e+00
5.408043861389160156e-01,2.559060759432406407e+00
5.428035259246826172e-01,2.558695382916376992e+00
5.448036193847656250e-01,2.558958835477690208e+00
5.468037128448486328e-01,2.558252520352902515e+00
5.488059520721435547e-01,2.556663460333759907e+00
5.508031845092773438e-01,2.553576535412852344e+00
5.528037548065185547e-01,2.554926580777952871e+00
5.548028945922851562e-01,2.554242915420879889e+00
5.568034648895263672e-01,2.554775184962175594e+00
5.588026046752929688e-01,2.555111951245302215e+00
5.608024597167968750e-01,2.554540342633765171e+00
5.628023147583007812e-01,2.554763860078318238e+00
5.648019313812255859e-01,2.553767270298870962e+00
5.668017864227294922e-01,2.552914327730456456e+00
5.688021183013916016e-01,2.551722830739358905e+00
5.708024501800537109e-01,2.551367587014149230e+00
5.728020668029785156e-01,2.551572030970100435e+00
5.748014450073242188e-01,2.552561468191322014e+00
5.768013000488281250e-01,2.551971382137701916e+00
5.788042545318603516e-01,2.550863927705756318e+00
5.808494091033935547e-01,2.548671072563061024e+00
5.828456878662109375e-01,2.530436817459680743e+00
5.849053859710693359e-01,2.529588643263416703e+00
5.868670940399169922e-01,2.520719471063550987e+00
5.888161659240722656e-01,2.515726985422013673e+00
5.908029079437255859e-01,2.525734606472803012e+00
5.928020477294921875e-01,2.527399364399834258e+00
5.948014259338378906e-01,2.529928389779137365e+00
5.968024730682373047e-01,2.530803982115266582e+00
5.988008975982666016e-01,2.530967894907938831e+00
6.008000373840332031e-01,2.531856600267481827e+00
6.027991771697998047e-01,2.532310787714813660e+00
6.048066616058349609e-01,2.532583777020427807e+00
6.068017482757568359e-01,2.532315556086964126e+00
6.087994575500488281e-01,2.533890310989655337e+00
6.107993125915527344e-01,2.536265556367105933e+00
6.127989292144775391e-01,2.537296716844644084e+00
6.147985458374023438e-01,2.537338440100960657e+00
6.167993545532226562e-01,2.538548414534141262e+00
6.188035011291503906e-01,2.538096611272884662e+00
6.207985877990722656e-01,2.538222973134871996e+00
6.227979660034179688e-01,2.539919321527400076e+00
6.247963905334472656e-01,2.540928428283742324e+00
6.267938613891601562e-01,2.543086712728346743e+00
6.288011074066162109e-01,2.542262380392835031e+00
6.307983398437500000e-01,2.542848890167342280e+00
6.327974796295166016e-01,2.544414704372251368e+00
6.347968578338623047e-01,2.543570106455100177e+00
6.367971897125244141e-01,2.545028036240104985e+00
6.387963294982910156e-01,2.546311920441617804e+00
6.407964229583740234e-01,2.546598618817164539e+00
6.428010463714599609e-01,2.548845118146553013e+00
6.447954177856445312e-01,2.549922770252558202e+00
6.467955112457275391e-01,2.549645012574793590e+00
6.487958431243896484e-01,2.549236720709409987e+00
6.507952213287353516e-01,2.550852602821898962e+00
6.527950763702392578e-01,2.550918167938967862e+00
6.548037528991699219e-01,2.551322883525238616e+00
6.567974090576171875e-01,2.551090425382903426e+00
6.587958335876464844e-01,2.551894492136775661e+00
6.607954502105712891e-01,2.553152746337979728e+00
6.627950668334960938e-01,2.553990191696905221e+00
6.647951602935791016e-01,2.552851146799462789e+00
6.667947769165039062e-01,2.553709453786546568e+00
6.687943935394287109e-01,2.551464146550196155e+00
6.707935333251953125e-01,2.552888697730147705e+00
6.727941036224365234e-01,2.554194635652856427e+00
6.747939586639404297e-01,2.555070824035504451e+00
6.767940521240234375e-01,2.555830783346984880e+00
6.787939071655273438e-01,2.555445141249315988e+00
6.807935237884521484e-01,2.555225796130394578e+00
6.827926635742187500e-01,2.556068605907989344e+00
6.847927570343017578e-01,2.556488222657230303e+00
6.867928504943847656e-01,2.556313581027219506e+00
6.887927055358886719e-01,2.557085461269076099e+00
6.907918453216552734e-01,2.557201690340243694e+00
6.927919387817382812e-01,2.556951350802344258e+00
6.947963237762451172e-01,2.558212585236142367e+00
6.967909336090087891e-01,2.552901810753561485e+00
6.987907886505126953e-01,2.555998868465288787e+00
7.007915973663330078e-01,2.556488222657230303e+00
7.027914524078369141e-01,2.555786675904593075e+00
7.047913074493408203e-01,2.556675381264136071e+00
7.067916393280029297e-01,2.557307786620591550e+00
7.087905406951904297e-01,2.556945390337156176e+00
7.107901573181152344e-01,2.559001750827044397e+00
7.127916812896728516e-01,2.558021850350123749e+00
7.147898674011230469e-01,2.556285566840835521e+00
7.167901992797851562e-01,2.557543821042039589e+00
7.187898159027099609e-01,2.557428188017390802e+00
7.207899093627929688e-01,2.557776279184374779e+00
7.227892875671386719e-01,2.558597631287292451e+00
7.247896194458007812e-01,2.558036155466575146e+00
7.267901897430419922e-01,2.558917112221373635e+00
7.287895679473876953e-01,2.557645744996755788e+00
7.307889461517333984e-01,2.557296461736734194e+00
7.327890396118164062e-01,2.557845420580556528e+00
7.347877025604248047e-01,2.556525177541396410e+00
7.367882728576660156e-01,2.556712932194820986e+00
7.387886047363281250e-01,2.557600445461326366e+00
7.407884597778320312e-01,2.558350271981987056e+00
7.427880764007568359e-01,2.557856149417895075e+00
7.447886466979980469e-01,2.559173412224461153e+00
7.467873096466064453e-01,2.558623857334120011e+00
7.488014698028564453e-01,2.557539648716407932e+00
7.507925033569335938e-01,2.557949132674829151e+00
7.527887821197509766e-01,2.554877108916891792e+00
7.547864913940429688e-01,2.555390901016104443e+00
7.567870616912841797e-01,2.555687136135952109e+00
7.587862014770507812e-01,2.556668228705910373e+00
7.607870101928710938e-01,2.556354112190498462e+00
7.627859115600585938e-01,2.556004828930476869e+00
7.647864818572998047e-01,2.555715150322336093e+00
7.667863368988037109e-01,2.555825418928315607e+00
7.687861919403076172e-01,2.555975026604536460e+00
7.707853317260742188e-01,2.555008835197548400e+00
7.727863788604736328e-01,2.555653757530898851e+00
7.747852802276611328e-01,2.556512660564501438e+00
7.767856121063232422e-01,2.556872076615342770e+00
7.787849903106689453e-01,2.557360238714246670e+00
7.807848453521728516e-01,2.554591006587863866e+00
7.827849388122558594e-01,2.555905885208354711e+00
7.847850322723388672e-01,2.556098408233929753e+00
7.867844104766845703e-01,2.555077380547211341e+00
7.887830734252929688e-01,2.556141919629802750e+00
7.907814979553222656e-01,2.555995888232694746e+00
7.927837371826171875e-01,2.556851811033703292e+00
7.947812080383300781e-01,2.556923336615960274e+00
7.967846393585205078e-01,2.557476467785414265e+00
7.987835407257080078e-01,2.556397027539852651e+00
8.007836341857910156e-01,2.556234902886736826e+00
8.027832508087158203e-01,2.556515044750576671e+00
8.047833442687988281e-01,2.556851811033703292e+00
8.067829608917236328e-01,2.556878633127049660e+00
8.087840080261230469e-01,2.557229108480108870e+00
8.107829093933105469e-01,2.556143111722840366e+00
8.127827644348144531e-01,2.556094235908298096e+00
8.147828578948974609e-01,2.556149072188028448e+00
8.167822360992431641e-01,2.554193443559818810e+00
8.187813758850097656e-01,2.554594582866976715e+00
8.207814693450927734e-01,2.554607099843871687e+00
8.227810859680175781e-01,2.555831379393503688e+00
8.247814178466796875e-01,2.555286592875313012e+00
8.267807960510253906e-01,2.556371397539543899e+00
8.287811279296875000e-01,2.556293911492098836e+00
8.307809829711914062e-01,2.554564780541036306e+00
8.327803611755371094e-01,2.554529017749907815e+00
8.347799777984619141e-01,2.554067081697831476e+00
8.367798328399658203e-01,2.554529017749907815e+00
8.387794494628906250e-01,2.555765814276434789e+00
8.407797813415527344e-01,2.555511302412903696e+00
8.427791595458984375e-01,2.555870718463745028e+00
8.447794914245605469e-01,2.555876678928933110e+00
8.467795848846435547e-01,2.555157846827250445e+00
8.487792015075683594e-01,2.555241293339883590e+00
8.507792949676513672e-01,2.554356760305972252e+00
8.527793884277343750e-01,2.553783363554878783e+00
8.547787666320800781e-01,2.553496665179332048e+00
8.567783832550048828e-01,2.554207748676270207e+00
8.587784767150878906e-01,2.554400867748364057e+00
8.607776165008544922e-01,2.554559416122367033e+00
8.627781867980957031e-01,2.554554647750216567e+00
8.647773265838623047e-01,2.553827470997270588e+00
8.667778968811035156e-01,2.554695314728655298e+00
8.687775135040283203e-01,2.553292817269899651e+00
8.707771301269531250e-01,2.552823132613078805e+00
8.727815151214599609e-01,2.553946084254513416e+00
8.747770786285400391e-01,2.553413814713217711e+00
8.767771720886230469e-01,2.555026716593112646e+00
8.787770271301269531e-01,2.554605907750834071e+00
8.807771205902099609e-01,2.553972310301340976e+00
8.827760219573974609e-01,2.552110857023103030e+00
8.847761154174804688e-01,2.552514380516336168e+00
8.867759704589843750e-01,2.552874392613696308e+00
8.887755870819091797e-01,2.553629583553026272e+00
8.907749652862548828e-01,2.553717202391291075e+00
8.927755355834960938e-01,2.553785747740954015e+00
8.947751522064208984e-01,2.554473585423658655e+00
8.967759609222412109e-01,2.553826278904232971e+00
8.987753391265869141e-01,2.553440636806564079e+00
9.007749557495117188e-01,2.553924030533317513e+00
9.027750492095947266e-01,2.553481167969843035e+00
9.047749042510986328e-01,2.550426429560951114e+00
9.067738056182861328e-01,2.552818960287447148e+00
9.087738990783691406e-01,2.552206820512631147e+00
9.107742309570312500e-01,2.553765482159314537e+00
9.127743244171142578e-01,2.553409046341067246e+00
9.147737026214599609e-01,2.552997774243089601e+00
9.167740345001220703e-01,2.553331560293622182e+00
9.187738895416259766e-01,2.552405304003394271e+00
9.207737445831298828e-01,2.552561468191322014e+00
9.227728843688964844e-01,2.552947110288990906e+00
9.247722625732421875e-01,2.553325599828434100e+00
9.267725944519042969e-01,2.554698891007768147e+00
9.287731647491455078e-01,2.553749388903306716e+00
9.307718276977539062e-01,2.553325599828434100e+00
9.327723979949951172e-01,2.553512162388821061e+00
9.347717761993408203e-01,2.553271359595222556e+00
9.367728233337402344e-01,2.552722400751400222e+00
9.387719631195068359e-01,2.553655213553335024e+00
9.407722949981689453e-01,2.553872174486181201e+00
9.427714347839355469e-01,2.555078572640248957e+00
9.448387622833251953e-01,2.555288381014869437e+00
9.467780590057373047e-01,2.525694671356042864e+00
9.487719535827636719e-01,2.547691172086140377e+00
9.507744312286376953e-01,2.546751206725979433e+00
9.527711868286132812e-01,2.544275825533369062e+00
9.547712802886962891e-01,2.545610373688980577e+00
9.567711353302001953e-01,2.547711437667779855e+00
9.587709903717041016e-01,2.547748392551945962e+00
9.607710838317871094e-01,2.549538320247926926e+00
9.627709388732910156e-01,2.549379175827405142e+00
9.647703170776367188e-01,2.551175660035092996e+00
9.667699337005615234e-01,2.551478451666647551e+00
9.687695503234863281e-01,2.552210396791743996e+00
9.707689285278320312e-01,2.552547163074870618e+00
9.727690219879150391e-01,2.554335302631295157e+00
9.747684001922607422e-01,2.555576867529972596e+00
9.767689704895019531e-01,2.557270831736425443e+00
9.787690639495849609e-01,2.558209008957029518e+00
9.807691574096679688e-01,2.558613724543300272e+00
9.827682971954345703e-01,2.559289641295628748e+00
9.847686290740966797e-01,2.560664124568000410e+00
9.867687225341796875e-01,2.561344809692479352e+00
9.887683391571044922e-01,2.563304610646320647e+00
9.907679557800292969e-01,2.563615746929138517e+00
9.927680492401123047e-01,2.565396733927337358e+00
9.947676658630371094e-01,2.567399450230532842e+00
9.967675209045410156e-01,2.568137951867336177e+00
9.987680912017822266e-01,2.569305010951162593e+00
1.000768184661865234e+00,2.571857878191218028e+00
1.002766847610473633e+00,2.573081561694331221e+00
1.004767656326293945e+00,2.574482271013530443e+00
1.006766557693481445e+00,2.575752446145110675e+00
1.008766651153564453e+00,2.577895829426744889e+00
1.010767936706542969e+00,2.578768441530280509e+00
1.012766838073730469e+00,2.581630060867078580e+00
1.014765739440917969e+00,2.582531879250035356e+00
1.016765832901000977e+00,2.583768079730043521e+00
1.018764972686767578e+00,2.584015439035348916e+00
1.020765304565429688e+00,2.585493634401993202e+00
1.022765636444091797e+00,2.587706755126327973e+00
1.024765491485595703e+00,2.589872788175676899e+00
1.026765346527099609e+00,2.591966103549731226e+00
1.028774976730346680e+00,2.592791031931761747e+00
1.030768632888793945e+00,2.591288994704365134e+00
1.032766342163085938e+00,2.594545792883133029e+00
1.034765481948852539e+00,2.595224689868055545e+00
1.036764860153198242e+00,2.595137071029790743e+00
1.038764238357543945e+00,2.597239327101627193e+00
1.040765047073364258e+00,2.598502945721500534e+00
1.042764186859130859e+00,2.599879217133428622e+00
1.044764995574951172e+00,2.601250720173206243e+00
1.046763658523559570e+00,2.602041673903664698e+00
1.048763275146484375e+00,2.601801467156585002e+00
1.050763130187988281e+00,2.602122140183703802e+00
1.052762985229492188e+00,2.602626395538615522e+00
1.054763078689575195e+00,2.603833985785720895e+00
1.056763172149658203e+00,2.604145122068538765e+00
1.058762311935424805e+00,2.604813290216122734e+00
1.060762882232666016e+00,2.605430198363089200e+00
1.062762260437011719e+00,2.606143666046102592e+00
1.064761877059936523e+00,2.605554772085520110e+00
1.066762447357177734e+00,2.605527949992173742e+00
1.068762063980102539e+00,2.604579639980749928e+00
1.070761680603027344e+00,2.604137969510313066e+00
1.072761297225952148e+00,2.605669213017131280e+00
1.074761390686035156e+00,2.604613614632321994e+00
1.076761007308959961e+00,2.605259133012191253e+00
1.078765630722045898e+00,2.604943228357222917e+00
1.080761194229125977e+00,2.604179096720110831e+00
1.082760572433471680e+00,2.604307842768173398e+00
1.084761142730712891e+00,2.602107239020733598e+00
1.086760997772216797e+00,2.601782989714501948e+00
1.088760614395141602e+00,2.602200818324186482e+00
1.090760707855224609e+00,2.600133728996959714e+00
1.092758655548095703e+00,2.600908589471410348e+00
1.094756603240966797e+00,2.600820970633145546e+00
1.096764326095581055e+00,2.599910807598925455e+00
1.098760604858398438e+00,2.596556853837591827e+00
1.100760221481323242e+00,2.596221279647502822e+00
1.102766036987304688e+00,2.595494102894556843e+00
1.104758977890014648e+00,2.593985509155453340e+00
1.106758594512939453e+00,2.594300221717384058e+00
1.108759164810180664e+00,2.594164919157614602e+00
1.110758304595947266e+00,2.592653345185917058e+00
1.112758398056030273e+00,2.592362474484738666e+00
1.114758014678955078e+00,2.591438006334067179e+00
1.116758584976196289e+00,2.590526651206809472e+00
1.118757963180541992e+00,2.587485621867850138e+00
1.120758056640625000e+00,2.586789439533882184e+00
1.122757673263549805e+00,2.586687515579165986e+00
1.124757289886474609e+00,2.584224651363450587e+00
1.126757621765136719e+00,2.583753774613592125e+00
1.128757238388061523e+00,2.582173655292231640e+00
1.130757808685302734e+00,2.577182361743731498e+00
1.132756710052490234e+00,2.578686187110684980e+00
1.134756565093994141e+00,2.576747843831520335e+00
1.136756896972656250e+00,2.575127789393399702e+00
1.138756513595581055e+00,2.574155637521223561e+00
1.140756368637084961e+00,2.573350974720832518e+00
1.142756223678588867e+00,2.572281071219571835e+00
1.144755363464355469e+00,2.571320840277771858e+00
1.146754980087280273e+00,2.570113250030666485e+00
1.148756265640258789e+00,2.568590351175111586e+00
1.150757312774658203e+00,2.566209741378991716e+00
1.152755498886108398e+00,2.560085363398237668e+00
1.154755592346191406e+00,2.562110729469147863e+00
1.156755447387695312e+00,2.562355704588378025e+00
1.158754348754882812e+00,2.560720748987287188e+00
1.160754919052124023e+00,2.560638494567691659e+00
1.162754535675048828e+00,2.559106058967835828e+00
1.164754390716552734e+00,2.557641572671124131e+00
1.166754245758056641e+00,2.557210034991507008e+00
1.168754339218139648e+00,2.555303282177839641e+00
1.170753479003906250e+00,2.554211921001901864e+00
1.172753572463989258e+00,2.554358548445528676e+00
1.174753665924072266e+00,2.554046816116191998e+00
1.176753520965576172e+00,2.554011649371582315e+00
1.178752899169921875e+00,2.553408450294548437e+00
1.180753946304321289e+00,2.552205032373074722e+00
1.182752370834350586e+00,2.551310962594862453e+00
1.184752941131591797e+00,2.550269669326504562e+00
1.186752080917358398e+00,2.547963565345235715e+00
1.188752651214599609e+00,2.549613422109296756e+00
1.190751552581787109e+00,2.548575109073532907e+00
1.192752361297607422e+00,2.549549645131784281e+00
1.194751739501953125e+00,2.549296325361290805e+00
1.196751594543457031e+00,2.547819322087684135e+00
1.198751688003540039e+00,2.547569578596303508e+00
1.200751781463623047e+00,2.546943729751554919e+00
1.202751398086547852e+00,2.546562259979517240e+00
1.204751491546630859e+00,2.546112244857817064e+00
1.206750869750976562e+00,2.546044295554672932e+00
1.208750724792480469e+00,2.545550769037099759e+00
1.210750579833984375e+00,2.546328609744144433e+00
1.212750673294067383e+00,2.546111052764779448e+00
1.214750766754150391e+00,2.545286124382748927e+00
1.216750144958496094e+00,2.545023863914473328e+00
1.218749761581420898e+00,2.544438546233003695e+00
1.220749855041503906e+00,2.544220989253638709e+00
1.222748994827270508e+00,2.544108336461583963e+00
1.224748849868774414e+00,2.544555371350690098e+00
1.226748943328857422e+00,2.544313376464053977e+00
1.228749036788940430e+00,2.545740311830080760e+00
1.230748176574707031e+00,2.543196981334326257e+00
1.232748270034790039e+00,2.543946211808468139e+00
1.234747648239135742e+00,2.543816869713886764e+00
1.236748456954956055e+00,2.543521826687076715e+00
1.238748073577880859e+00,2.543958728785363110e+00
1.240747928619384766e+00,2.544181054136878561e+00
1.242747783660888672e+00,2.545367782755825647e+00
1.244747638702392578e+00,2.546243375091954864e+00
1.246747255325317383e+00,2.545327847639065499e+00
1.248746871948242188e+00,2.545881574855038298e+00
1.250747203826904297e+00,2.545462554152316148e+00
1.252746820449829102e+00,2.546006744623988016e+00
1.254746437072753906e+00,2.546324437418512776e+00
1.256746768951416016e+00,2.548485106049192872e+00
1.258745670318603516e+00,2.549267119081869204e+00
1.260746479034423828e+00,2.549599713039364168e+00
1.262746334075927734e+00,2.550990289567743652e+00
1.264746665954589844e+00,2.549789851878863978e+00
1.266745805740356445e+00,2.550322717466678490e+00
1.268746376037597656e+00,2.550701207006121685e+00
1.270745038986206055e+00,2.549374407455254676e+00
1.272745370864868164e+00,2.551821774461481063e+00
1.274744749069213867e+00,2.551114267243655753e+00
1.276744365692138672e+00,2.551966017719032642e+00
1.278744220733642578e+00,2.553533620063498155e+00
1.280744075775146484e+00,2.553899592626046378e+00
1.282744646072387695e+00,2.554383582399318620e+00
1.284744739532470703e+00,2.553745812624193867e+00
1.286744117736816406e+00,2.553876346811812859e+00
1.288745403289794922e+00,2.553867406114030736e+00
1.290743350982666016e+00,2.552348083537588685e+00
1.292743921279907227e+00,2.555824226835277990e+00
1.294743299484252930e+00,2.556401795912003116e+00
1.296743631362915039e+00,2.556820816614725267e+00
1.298742771148681641e+00,2.556623525216999759e+00
1.300742626190185547e+00,2.557597465228732325e+00
1.302743196487426758e+00,2.558337158958573276e+00
1.304742336273193359e+00,2.558611936403743847e+00
1.306742429733276367e+00,2.559886283860955736e+00
1.308742761611938477e+00,2.560256428749135615e+00
1.310742378234863281e+00,2.561113543643181778e+00
1.312741756439208984e+00,2.562356896681415641e+00
1.314741373062133789e+00,2.561368651553231679e+00
1.316741943359375000e+00,2.562704391801880810e+00
1.318740844726562500e+00,2.562607832265833885e+00
1.320741176605224609e+00,2.562790818547107996e+00
1.322740793228149414e+00,2.562938638083772425e+00
1.324741601943969727e+00,2.563800521349969053e+00
1.326740741729736328e+00,2.564794130896822288e+00
1.328741073608398438e+00,2.565633960441823014e+00
1.330740451812744141e+00,2.564592667173465124e+00
1.332746744155883789e+00,2.565065928109398818e+00
1.334739685058593750e+00,2.565098114621414460e+00
1.336740493774414062e+00,2.565303154623884474e+00
1.338739156723022461e+00,2.566238947658413316e+00
1.340739250183105469e+00,2.566402264404566758e+00
1.342739582061767578e+00,2.567689128838673618e+00
1.344739437103271484e+00,2.568608828617194639e+00
1.346739053726196289e+00,2.567712970699425945e+00
1.348739624023437500e+00,2.568199940705292228e+00
1.350741147994995117e+00,2.568727441874437467e+00
1.352738857269287109e+00,2.563787408326555273e+00
1.354739189147949219e+00,2.566830225805071031e+00
1.356738090515136719e+00,2.567272492322026700e+00
1.358738422393798828e+00,2.566411205102348880e+00
1.360738277435302734e+00,2.567927547446196890e+00
1.362739086151123047e+00,2.567369647904592433e+00
1.364738702774047852e+00,2.567113347901504916e+00
1.366737127304077148e+00,2.566969700690472145e+00
1.368737936019897461e+00,2.566603728127923922e+00
1.370736837387084961e+00,2.566366501613438267e+00
1.372737407684326172e+00,2.565890856491429339e+00
1.374737024307250977e+00,2.566643067198165262e+00
1.376736879348754883e+00,2.566745587199400269e+00
1.378736495971679688e+00,2.566367693706475883e+00
1.380736827850341797e+00,2.566145964401479240e+00
1.382736206054687500e+00,2.565420575788089685e+00
1.384736537933349609e+00,2.565220304157770137e+00
1.386736392974853516e+00,2.564102120888485992e+00
1.388736009597778320e+00,2.564165301819479659e+00
1.390735387802124023e+00,2.563749857395870357e+00
1.392735958099365234e+00,2.563809462047751175e+00
1.394735574722290039e+00,2.564548559731073318e+00
1.396735191345214844e+00,2.563823767164202572e+00
1.398734569549560547e+00,2.563311763204546345e+00
1.400735855102539062e+00,2.562263913424481565e+00
1.402734041213989258e+00,2.560833997825860742e+00
1.404734134674072266e+00,2.561363883181081214e+00
1.406733989715576172e+00,2.561394281553540431e+00
1.408733844757080078e+00,2.561691112719906904e+00
1.410733938217163086e+00,2.561646409230996291e+00
1.412734270095825195e+00,2.561110563410587737e+00
1.414733648300170898e+00,2.560460276658568013e+00
1.416734457015991211e+00,2.560447759681673041e+00
1.418734073638916016e+00,2.559351630133584798e+00
1.420733451843261719e+00,2.560023970606800425e+00
1.422732591629028320e+00,2.559410042692428000e+00
1.424778699874877930e+00,2.559581108043325948e+00
1.426734209060668945e+00,2.559523291531001554e+00
1.428733587265014648e+00,2.559845156651157971e+00
1.430732727050781250e+00,2.558806843615394122e+00
1.432732820510864258e+00,2.558254308492458939e+00
1.434732198715209961e+00,2.556943006151080944e+00
1.436732292175292969e+00,2.555935687534295120e+00
1.438732147216796875e+00,2.557407326389232516e+00
1.440732240676879883e+00,2.557328052202231028e+00
1.442730665206909180e+00,2.556864328010598264e+00
1.444730758666992188e+00,2.556720680799565493e+00
1.446730613708496094e+00,2.556509680331907397e+00
1.448730945587158203e+00,2.556799954986566981e+00
1.450731277465820312e+00,2.556259936840526770e+00
1.452730417251586914e+00,2.555544681017956954e+00
1.454730987548828125e+00,2.554552859610660143e+00
1.456730365753173828e+00,2.555349773806306679e+00
1.458730220794677734e+00,2.555525607529355092e+00
1.460730075836181641e+00,2.555257386595891411e+00
1.462729930877685547e+00,2.555243081479440015e+00
1.464729785919189453e+00,2.554689354263467216e+00
1.466728687286376953e+00,2.554169601699066483e+00
1.468729496002197266e+00,2.553137845175009524e+00
1.470729351043701172e+00,2.553615874483093684e+00
1.472729206085205078e+00,2.553245133548394996e+00
1.474728822708129883e+00,2.552627033308390914e+00
1.476728439331054688e+00,2.553926414719392746e+00
1.478728294372558594e+00,2.553735083786855320e+00
1.480728626251220703e+00,2.552195495628773791e+00
1.482729196548461914e+00,2.551986283300672120e+00
1.484728336334228516e+00,2.551693624459937304e+00
1.486728191375732422e+00,2.550685113750113864e+00
1.488728046417236328e+00,2.551966017719032642e+00
1.490727901458740234e+00,2.549804156995315374e+00
1.492728233337402344e+00,2.548185890696751166e+00
1.494727373123168945e+00,2.550376361653371227e+00
1.496726989746093750e+00,2.549786275599751129e+00
1.498726844787597656e+00,2.549031084660421165e+00
1.500726699829101562e+00,2.549027508381308316e+00
1.502727031707763672e+00,2.548628753260225643e+00
1.504727602005004883e+00,2.547440236501722133e+00
1.506726026535034180e+00,2.547798460459525849e+00
1.508726119995117188e+00,2.547468250688106117e+00
1.510725498199462891e+00,2.547521298828280045e+00
1.512725830078125000e+00,2.548448747211545573e+00
1.514725923538208008e+00,2.547878330693046145e+00
1.516726016998291016e+00,2.547596996736168684e+00
1.518725395202636719e+00,2.546340530674520597e+00
1.520725488662719727e+00,2.546235626487210357e+00
1.522725343704223633e+00,2.546215360905570879e+00
1.524725198745727539e+00,2.546970551844901287e+00
1.526725053787231445e+00,2.547803228831676314e+00
1.528724670410156250e+00,2.548001712322439438e+00
1.530723810195922852e+00,2.545949524158182431e+00
1.532724380493164062e+00,2.546873992308853918e+00
1.534723281860351562e+00,2.545662825782635696e+00
1.536723375320434570e+00,2.546241586952398439e+00
1.538723468780517578e+00,2.546335762302370131e+00
1.540723562240600586e+00,2.546915119518652126e+00
1.542723894119262695e+00,2.547787731622187302e+00
1.544723749160766602e+00,2.547586267898830137e+00
1.546723127365112305e+00,2.544294302975452116e+00
1.548723459243774414e+00,2.545366590662788031e+00
1.550725698471069336e+00,2.545003002286315041e+00
1.552722692489624023e+00,2.541977470156844721e+00
1.554722547531127930e+00,2.544045751577109105e+00
1.556722164154052734e+00,2.543899720180001101e+00
1.558722496032714844e+00,2.544359868092521015e+00
1.560722112655639648e+00,2.545816605784488207e+00
1.562722206115722656e+00,2.544952338332216346e+00
1.564722299575805664e+00,2.545289104615342968e+00
1.566721677780151367e+00,2.544365828557709097e+00
1.568721532821655273e+00,2.544474309024132186e+00
1.570720911026000977e+00,2.544543450420313935e+00
1.572720766067504883e+00,2.545377915546645387e+00
1.574720621109008789e+00,2.546009724856582057e+00
1.576720952987670898e+00,2.546701138818399546e+00
1.578719615936279297e+00,2.546665972073789863e+00
1.580719947814941406e+00,2.546764319749393213e+00
1.582719802856445312e+00,2.546637361840887070e+00
1.584720373153686523e+00,2.545907800901865858e+00
1.586719989776611328e+00,2.546258872301443876e+00
1.588719606399536133e+00,2.546954458588893466e+00
1.590723991394042969e+00,2.546987837193946724e+00
1.592719554901123047e+00,2.546524113002313516e+00
1.594719171524047852e+00,2.548719352331084487e+00
1.596719026565551758e+00,2.548579281399164564e+00
1.598718166351318359e+00,2.548086946974629008e+00
1.600718498229980469e+00,2.548289602791023789e+00
1.602718591690063477e+00,2.547824686506353409e+00
1.604728698730468750e+00,2.549214070941695276e+00
1.606721401214599609e+00,2.547320431151441689e+00
1.608719110488891602e+00,2.548809355355424522e+00
1.610718488693237305e+00,2.549369043036585403e+00
1.612718582153320312e+00,2.548495834886531419e+00
1.614717721939086914e+00,2.547900384414242048e+00
1.616717815399169922e+00,2.547999924182883014e+00
1.618717193603515625e+00,2.547996943950288973e+00
1.620717048645019531e+00,2.548342650931197717e+00
1.622716903686523438e+00,2.548813527681056179e+00
1.624716520309448242e+00,2.549682563505478505e+00
1.626716375350952148e+00,2.549870318158903082e+00
1.628716707229614258e+00,2.550349539560024859e+00
1.630716323852539062e+00,2.550075954207891904e+00
1.632716178894042969e+00,2.549469774898263985e+00
1.634716749191284180e+00,2.548997706055367907e+00
1.636715412139892578e+00,2.548914259542734762e+00
1.638722181320190430e+00,2.549649780946944055e+00
1.640718460083007812e+00,2.548130458370502005e+00
1.642716169357299805e+00,2.549099033963565297e+00
1.644715785980224609e+00,2.550785249565273638e+00
1.646715641021728516e+00,2.549755877227291911e+00
1.648715972900390625e+00,2.550165361185713131e+00
1.650715112686157227e+00,2.549929326764265092e+00
1.652715444564819336e+00,2.549512094201099366e+00
1.654715061187744141e+00,2.549632495597898618e+00
1.656714916229248047e+00,2.549704617226674408e+00
1.658714056015014648e+00,2.550514644445734724e+00
1.660714149475097656e+00,2.551151222127821860e+00
1.662714242935180664e+00,2.551437920503368595e+00
1.664714097976684570e+00,2.551385468409713475e+00
1.666714191436767578e+00,2.550667828401068427e+00
1.668713808059692383e+00,2.550010389090823004e+00
1.670713901519775391e+00,2.550477689561568617e+00
1.672714233398437500e+00,2.551365798874592805e+00
1.674713850021362305e+00,2.551003998637676240e+00
1.676713705062866211e+00,2.551353877944216642e+00
1.678712606430053711e+00,2.552497691213809539e+00
1.680712461471557617e+00,2.551827734926669144e+00
1.682712316513061523e+00,2.551644748645395033e+00
1.684711933135986328e+00,2.552314704932535427e+00
1.686711549758911133e+00,2.551433748177736938e+00
1.688712120056152344e+00,2.552568620749547712e+00
1.690711736679077148e+00,2.553029364708586435e+00
1.692711591720581055e+00,2.553785151694435207e+00
1.694771766662597656e+00,2.553767270298870962e+00
1.696820020675659180e+00,2.526530924621930740e+00
1.698814868927001953e+00,2.498047649627643807e+00
1.700865983963012695e+00,2.479648885685072468e+00
1.702869653701782227e+00,2.464278634104565935e+00
1.704865217208862305e+00,2.460459168012043119e+00
1.706844568252563477e+00,2.440949373358413332e+00
1.708808183670043945e+00,2.440086894045697896e+00
1.710745096206665039e+00,2.438784532402102023e+00
1.712740659713745117e+00,2.430501273930224748e+00
1.714731216430664062e+00,2.424868634327487449e+00
1.716738462448120117e+00,2.417893697964393684e+00
1.718754053115844727e+00,2.412002374172493635e+00
1.720737695693969727e+00,2.401969123121395544e+00
1.722757339477539062e+00,2.398804712153042917e+00
1.724742412567138672e+00,2.395004319549121963e+00
1.726778268814086914e+00,2.391369627877429682e+00
1.728796482086181641e+00,2.384748743146507977e+00
1.730797529220581055e+00,2.379668638666705860e+00
1.732820987701416016e+00,2.384610460354144479e+00
1.734801292419433594e+00,2.364145799177384433e+00
1.737288951873779297e+00,2.375592276524576718e+00
1.740834474563598633e+00,2.377444193058513733e+00
1.742833375930786133e+00,2.377395317243971462e+00
1.744809865951538086e+00,2.380547211235429117e+00
1.746739625930786133e+00,2.379084513078273844e+00
1.748711585998535156e+00,2.423440506868423050e+00
1.750702857971191406e+00,2.436872415169765382e+00
1.752710342407226562e+00,2.451525622788145675e+00
1.754703044891357422e+00,2.460150415915300481e+00
1.756703376770019531e+00,2.474847730976072580e+00
1.758702039718627930e+00,2.487227617171718919e+00
1.760704040527343750e+00,2.499309480107960724e+00
1.762701511383056641e+00,2.507653535324756433e+00
1.764700889587402344e+00,2.519257368952914522e+00
1.766700029373168945e+00,2.529684606752944820e+00
1.768705129623413086e+00,2.539927666178663390e+00
1.770699739456176758e+00,2.548226421860030122e+00
1.772704124450683594e+00,2.558992214082743466e+00
1.774719476699829102e+00,2.566467233475116849e+00
1.776702642440795898e+00,2.577609131051198155e+00
1.778699159622192383e+00,2.585358927888742553e+00
1.780703783035278320e+00,2.592293929135075725e+00
1.782702207565307617e+00,2.599124622240617466e+00
1.784702539443969727e+00,2.605023694637262022e+00
1.786701679229736328e+00,2.611252380758807945e+00
1.788703203201293945e+00,2.617628290370499045e+00
1.790704011917114258e+00,2.622475340661447163e+00
1.792705297470092773e+00,2.628909662831981464e+00
1.794701337814331055e+00,2.633351997536658828e+00
1.796701669692993164e+00,2.636857943160288542e+00
1.798700809478759766e+00,2.640250639945344702e+00
1.800701618194580078e+00,2.644375877902016558e+00
1.802700281143188477e+00,2.646968084212313332e+00
1.804701089859008789e+00,2.649526911917556848e+00
1.806700706481933594e+00,2.653401214289810017e+00
1.808700084686279297e+00,2.654727417794158217e+00
1.810699701309204102e+00,2.657314259685785718e+00
1.812699556350708008e+00,2.657802421784689617e+00
1.814699172973632812e+00,2.658853251797348438e+00
1.816699266433715820e+00,2.658619005515456823e+00
1.818698644638061523e+00,2.659252602964949919e+00
1.820699453353881836e+00,2.659689505063236314e+00
1.822699069976806641e+00,2.660473902281987879e+00
1.824699878692626953e+00,2.660358269257339092e+00
1.826698303222656250e+00,2.660698015773059755e+00
1.828698873519897461e+00,2.660414297630107061e+00
1.830698013305664062e+00,2.658142168300410280e+00
1.832697391510009766e+00,2.656747419446399139e+00
1.834697484970092773e+00,2.654427606395197703e+00
1.836697816848754883e+00,2.652316409625579130e+00
1.838697433471679688e+00,2.652079779157612283e+00
1.840697765350341797e+00,2.650430518440070049e+00
1.842696905136108398e+00,2.649321275868568026e+00
1.844697713851928711e+00,2.648175674459418705e+00
1.846697807312011719e+00,2.645131068841346522e+00
1.848697423934936523e+00,2.642458396251010644e+00
1.850696325302124023e+00,2.640002088547001691e+00
1.852696657180786133e+00,2.636771516415061356e+00
1.854696989059448242e+00,2.635837511520088938e+00
1.856696605682373047e+00,2.633812145449178743e+00
1.858695983886718750e+00,2.631681279144439500e+00
1.860696077346801758e+00,2.630215600754690186e+00
1.862695217132568359e+00,2.627579287002001607e+00
1.864696979522705078e+00,2.625352457207734247e+00
1.866695642471313477e+00,2.620205595517825614e+00
1.868727684020996094e+00,2.619170262714655806e+00
1.870703935623168945e+00,2.602222872045382385e+00
1.872696638107299805e+00,2.608592225145366594e+00
1.874695301055908203e+00,2.607973528858843704e+00
1.876695632934570312e+00,2.607015682103118959e+00
1.878694534301757812e+00,2.605267477663454567e+00
1.880695104598999023e+00,2.603622985318062799e+00
1.882693290710449219e+00,2.602551889723764500e+00
1.884693622589111328e+00,2.600894880401477760e+00
1.886693954467773438e+00,2.598393869208558637e+00
1.888693809509277344e+00,2.598670434793285633e+00
1.890693664550781250e+00,2.597335886637674118e+00
1.892693758010864258e+00,2.596336316625632801e+00
1.894693136215209961e+00,2.596356582207272279e+00
1.896693944931030273e+00,2.593701194965981838e+00
1.898692846298217773e+00,2.594108890784846633e+00
1.900693655014038086e+00,2.594032000783920378e+00
1.902692317962646484e+00,2.590886067257650804e+00
1.904692411422729492e+00,2.592456649834710358e+00
1.906691312789916992e+00,2.591022561910457878e+00
1.908692121505737305e+00,2.591653179127356932e+00
1.910691976547241211e+00,2.591737221686508885e+00
1.912696361541748047e+00,2.590961169119020635e+00
1.914691686630249023e+00,2.588948320025005412e+00
1.916694402694702148e+00,2.589352439564757358e+00
1.918690919876098633e+00,2.589418004681826257e+00
1.920691013336181641e+00,2.589102696073376730e+00
1.922690629959106445e+00,2.590131472364839649e+00
1.924691200256347656e+00,2.590418170740386383e+00
1.926689863204956055e+00,2.591193031214837017e+00
1.928690433502197266e+00,2.591774176570674992e+00
1.930690050125122070e+00,2.590710233534602391e+00
1.932689905166625977e+00,2.590843151908296615e+00
1.934689760208129883e+00,2.590520690741621390e+00
1.936689853668212891e+00,2.591876696571909999e+00
1.938689470291137695e+00,2.592117499365508504e+00
1.940689563751220703e+00,2.591726492849170338e+00
1.942688941955566406e+00,2.592620562627382608e+00
1.944705009460449219e+00,2.593234490541755033e+00
1.946704149246215820e+00,2.584228227642563436e+00
1.948691844940185547e+00,2.583591053913957492e+00
1.950689077377319336e+00,2.583794901823389889e+00
1.952690362930297852e+00,2.585092495094835296e+00
1.954692840576171875e+00,2.581712315286674109e+00
1.956693410873413086e+00,2.584281275782737364e+00
1.958688974380493164e+00,2.583125541582768303e+00
1.960688114166259766e+00,2.584771822067716496e+00
1.962687969207763672e+00,2.584965537186329154e+00
1.964686393737792969e+00,2.585873912080992820e+00
1.966684103012084961e+00,2.585841129522458370e+00
1.968688011169433594e+00,2.587200115585341020e+00
1.970687389373779297e+00,2.587067197211646796e+00
1.972687005996704102e+00,2.589138458864505221e+00
1.974686861038208008e+00,2.588947127931967795e+00
1.976687431335449219e+00,2.590444396787213943e+00
1.978686571121215820e+00,2.589806030965570383e+00
1.980688810348510742e+00,2.588976334211389396e+00
1.982686519622802734e+00,2.590414594461273534e+00
1.984686374664306641e+00,2.590307902134406870e+00
1.986685752868652344e+00,2.591159056563264951e+00
1.988686561584472656e+00,2.592022131922499195e+00
1.990686178207397461e+00,2.591980408666182623e+00
1.992685317993164062e+00,2.592033456806356551e+00
1.994684934616088867e+00,2.592700432860902904e+00
1.996685266494750977e+00,2.592515062393553560e+00
1.998685121536254883e+00,2.591528009358407214e+00
2.000684976577758789e+00,2.592459034020785591e+00
2.002684831619262695e+00,2.591930936805121544e+00
2.004684925079345703e+00,2.591981600759220239e+00
2.006708383560180664e+00,2.592953752631396380e+00
2.008700609207153320e+00,2.586520622553899695e+00
2.010688304901123047e+00,2.583369324608960849e+00
2.012685537338256836e+00,2.583575556704468479e+00
2.014684438705444336e+00,2.583360979957697534e+00
2.016684293746948242e+00,2.583623836472491941e+00
2.018683671951293945e+00,2.583162496466934410e+00
2.020683765411376953e+00,2.584240148572939599e+00
2.022690773010253906e+00,2.584911296953117610e+00
2.024721622467041016e+00,2.584454129273191736e+00
2.026688814163208008e+00,2.570884534226004270e+00
2.028683900833129883e+00,2.578896591531824267e+00
2.030682802200317383e+00,2.578568169899960960e+00
2.032682895660400391e+00,2.578555056876547180e+00
2.034682989120483398e+00,2.578515121759787032e+00
2.036682128906250000e+00,2.577821323611893867e+00
2.038681507110595703e+00,2.577610323144235771e+00
2.040686130523681641e+00,2.578220674779495791e+00
2.042681455612182617e+00,2.578704068506249225e+00
2.044682264328002930e+00,2.579143950837129662e+00
2.046681642532348633e+00,2.578395316409506588e+00
2.048681974411010742e+00,2.578630158737917011e+00
2.050685882568359375e+00,2.577140638487414925e+00
2.052681922912597656e+00,2.575713107074869335e+00
2.054679870605468750e+00,2.577106663835842859e+00
2.056680202484130859e+00,2.576924869647606364e+00
2.058680534362792969e+00,2.576542803829050321e+00
2.060680150985717773e+00,2.577023813369728522e+00
2.062679529190063477e+00,2.576597044062261865e+00
2.064679861068725586e+00,2.576009938241235808e+00
2.066678762435913086e+00,2.576914736856786625e+00
2.068680047988891602e+00,2.575346538465802304e+00
2.070678234100341797e+00,2.574009010077596749e+00
2.072678565979003906e+00,2.574400016593934915e+00
2.074677705764770508e+00,2.575276801023101747e+00
2.076678514480590820e+00,2.575026461485202312e+00
2.078678131103515625e+00,2.574996659159261903e+00
2.080677747726440430e+00,2.574153253335148328e+00
2.082679510116577148e+00,2.573910066355474591e+00
2.084713935852050781e+00,2.569716283049140237e+00
2.086685419082641602e+00,2.555135793106054543e+00
2.088679552078247070e+00,2.565651841837387259e+00
2.090678453445434570e+00,2.565335341135900116e+00
2.092677831649780273e+00,2.564319081821332169e+00
2.094676733016967773e+00,2.565577336022536237e+00
2.096677541732788086e+00,2.565527864161475158e+00
2.098676919937133789e+00,2.562047548538154196e+00
2.100676774978637695e+00,2.549951976531979803e+00
2.102678775787353516e+00,2.548220461394842040e+00
2.104677915573120117e+00,2.546644514399112769e+00
2.106675863265991211e+00,2.541938727133122189e+00
2.108676671981811523e+00,2.541022007587195208e+00
2.110675573348999023e+00,2.539431159428496176e+00
2.112676382064819336e+00,2.536169592877577816e+00
2.114675283432006836e+00,2.534938756816238925e+00
2.116675853729248047e+00,2.533920709362114554e+00
2.118674993515014648e+00,2.531455460960323922e+00
2.120675325393676758e+00,2.530318800248956723e+00
2.122674703598022461e+00,2.529586855123860278e+00
2.124675512313842773e+00,2.527597251844078574e+00
2.126675128936767578e+00,2.527209821606853257e+00
2.128674745559692383e+00,2.526910010207892743e+00
2.130674362182617188e+00,2.526171508571089408e+00
2.132674694061279297e+00,2.524221840408067852e+00
2.134673595428466797e+00,2.524147930639735637e+00
2.136674642562866211e+00,2.523005309463180357e+00
2.138673543930053711e+00,2.522880139694230639e+00
2.140673875808715820e+00,2.523109617603971788e+00
2.142672538757324219e+00,2.523062529928985942e+00
2.144673585891723633e+00,2.524096670639118134e+00
2.146672248840332031e+00,2.522715034808520773e+00
2.148673534393310547e+00,2.523056569463797860e+00
2.150672435760498047e+00,2.522805037832860808e+00
2.152676582336425781e+00,2.521933021775844441e+00
2.154672861099243164e+00,2.515275182160756628e+00
2.156672716140747070e+00,2.522127332940975908e+00
2.158672332763671875e+00,2.521192135952965874e+00
2.160670518875122070e+00,2.523249092489372902e+00
2.162668466567993164e+00,2.524422708084906208e+00
2.164674043655395508e+00,2.524119916453351653e+00
2.166672945022583008e+00,2.523675265750320751e+00
2.168671846389770508e+00,2.524425092270981441e+00
2.170670986175537109e+00,2.525031271580609360e+00
2.172672033309936523e+00,2.526374164387484189e+00
2.174670457839965820e+00,2.527593675564965725e+00
2.176671743392944336e+00,2.530080977687952259e+00
2.178670406341552734e+00,2.530689541183655411e+00
2.180670261383056641e+00,2.531085316072144042e+00
2.182669162750244141e+00,2.536477748927801645e+00
2.184670448303222656e+00,2.545177047869807030e+00
2.186669111251831055e+00,2.547782963250036836e+00
2.188669919967651367e+00,2.551998204231048284e+00
2.190669775009155273e+00,2.555058307058609479e+00
2.192669153213500977e+00,2.558749027103069729e+00
2.194669008255004883e+00,2.562879629478410415e+00
2.196669578552246094e+00,2.565669723232951505e+00
2.198668956756591797e+00,2.568531938616268384e+00
2.200668573379516602e+00,2.569881983981368911e+00
2.202667713165283203e+00,2.572755524248543146e+00
2.204668998718261719e+00,2.575540253584414963e+00
2.206667661666870117e+00,2.578600356411976602e+00
2.208673000335693359e+00,2.580741951554054392e+00
2.210667371749877930e+00,2.582757184834144848e+00
2.212667703628540039e+00,2.584055374152109064e+00
2.214668035507202148e+00,2.585258196027063970e+00
2.216667413711547852e+00,2.587157796282505640e+00
2.218667268753051758e+00,2.587691257916838961e+00
2.220666885375976562e+00,2.589662383754537611e+00
2.222666740417480469e+00,2.591656159359950973e+00
2.224667310714721680e+00,2.592037629131988208e+00
2.226665973663330078e+00,2.594540428464463755e+00
2.228666782379150391e+00,2.594766330095092055e+00
2.230666875839233398e+00,2.593607019616010145e+00
2.232666254043579102e+00,2.595269393356966159e+00
2.234665632247924805e+00,2.595838021735909162e+00
2.236668825149536133e+00,2.596589636396126277e+00
2.238662004470825195e+00,2.597286414776613039e+00
2.240665674209594727e+00,2.597355556172794788e+00
2.242664337158203125e+00,2.598053526646319167e+00
2.244701623916625977e+00,2.597944450133377270e+00
2.246675252914428711e+00,2.596391748951881961e+00
2.248669147491455078e+00,2.591636489824830303e+00
2.250673532485961914e+00,2.592495988904951698e+00
2.252670526504516602e+00,2.591057132608548752e+00
2.254668235778808594e+00,2.592087697039568095e+00
2.256667613983154297e+00,2.592436980299589688e+00
2.258666515350341797e+00,2.592484664021094343e+00
2.260666131973266602e+00,2.592882823095658207e+00
2.262666225433349609e+00,2.592065047271853384e+00
2.264665603637695312e+00,2.591190050982242976e+00
2.266665220260620117e+00,2.590492080508718598e+00
2.268665552139282227e+00,2.589090179096481759e+00
2.270668029785156250e+00,2.589882920966496638e+00
2.272666931152343750e+00,2.588807653046566681e+00
2.274665117263793945e+00,2.589090179096481759e+00
2.276665449142456055e+00,2.588647912579526089e+00
2.278665065765380859e+00,2.587197731399265788e+00
2.280665397644042969e+00,2.587106536281888136e+00
2.282663583755493164e+00,2.585336278121027842e+00
2.284664392471313477e+00,2.583255479723868486e+00
2.286664009094238281e+00,2.583128521815362344e+00
2.288662910461425781e+00,2.582585523436728092e+00
2.290665864944458008e+00,2.581753442496471873e+00
2.292665004730224609e+00,2.581149647372919187e+00
2.294663906097412109e+00,2.580436179689905796e+00
2.296663761138916016e+00,2.578471610363914035e+00
2.298663139343261719e+00,2.577864835007766864e+00
2.300663709640502930e+00,2.576352068943031703e+00
2.302662372589111328e+00,2.572814532853905156e+00
2.304662942886352539e+00,2.573471972164150579e+00
2.306662559509277344e+00,2.572766253085881694e+00
2.308662414550781250e+00,2.571868607028556575e+00
2.310662508010864258e+00,2.572125503078162900e+00
2.312663316726684570e+00,2.568968840714554780e+00
2.314662218093872070e+00,2.565698929512373105e+00
2.316662311553955078e+00,2.566668101151955206e+00
2.318661928176879883e+00,2.565743633001283719e+00
2.320661783218383789e+00,2.564658232290534023e+00
2.322660923004150391e+00,2.563733764139862537e+00
2.324660778045654297e+00,2.564070530422989158e+00
2.326660633087158203e+00,2.563571639486746712e+00
2.328660488128662109e+00,2.562626905754435747e+00
2.330659866333007812e+00,2.560912079919824613e+00
2.332665205001831055e+00,2.559674687346778832e+00
2.334660530090332031e+00,2.559147186177633593e+00
2.336661815643310547e+00,2.558802075243243657e+00
2.338660240173339844e+00,2.558847374778673078e+00
2.340659379959106445e+00,2.557828731278029899e+00
2.342657327651977539e+00,2.557030624989345746e+00
2.344660997390747070e+00,2.556971616383983736e+00
2.346659660339355469e+00,2.555377787992690664e+00
2.348659276962280273e+00,2.555285996828794204e+00
2.350657939910888672e+00,2.554385370538875044e+00
2.352665424346923828e+00,2.553164667268355892e+00
2.354659557342529297e+00,2.548437422327688218e+00
2.356658935546875000e+00,2.551054662591774935e+00
2.358658790588378906e+00,2.551366394921111613e+00
2.360658168792724609e+00,2.550719088401685930e+00
2.362658500671386719e+00,2.550435966305252045e+00
2.364658355712890625e+00,2.550016945602529894e+00
2.366657733917236328e+00,2.549110358847422653e+00
2.368656635284423828e+00,2.548824852564913535e+00
2.370656013488769531e+00,2.548825448611432343e+00
2.372660160064697266e+00,2.548990553497142209e+00
2.374656915664672852e+00,2.548477953490967174e+00
2.376657724380493164e+00,2.549003070474037180e+00
2.378657102584838867e+00,2.549864357693715000e+00
2.380656242370605469e+00,2.549198573732206263e+00
2.382655858993530273e+00,2.549183076522717251e+00
2.384655952453613281e+00,2.548576897213089332e+00
2.386656045913696289e+00,2.547347849291306865e+00
2.388656854629516602e+00,2.549174731871453936e+00
2.390656232833862305e+00,2.548938697450005897e+00
2.392658710479736328e+00,2.549850648623782412e+00
2.394655227661132812e+00,2.549667066295989493e+00
2.396654844284057617e+00,2.549162214894558964e+00
2.398654222488403320e+00,2.549000090241443139e+00
2.400654554367065430e+00,2.548098271858486363e+00
2.402654409408569336e+00,2.549562758155198061e+00
2.404654741287231445e+00,2.548157280463848373e+00
2.406653881072998047e+00,2.548976844427209620e+00
2.408654212951660156e+00,2.550047343974989111e+00
2.410653591156005859e+00,2.550537294213449435e+00
2.412656307220458984e+00,2.551271623524621113e+00
2.414654016494750977e+00,2.550276821884730261e+00
2.416653633117675781e+00,2.550731009332062094e+00
2.418653249740600586e+00,2.550320929327122066e+00
2.420653343200683594e+00,2.550611800028300458e+00
2.422652959823608398e+00,2.551172679802498955e+00
2.424652814865112305e+00,2.551078504452527262e+00
2.426652193069458008e+00,2.552696770751091471e+00
2.428652286529541016e+00,2.552260464699323883e+00
2.430651903152465820e+00,2.551254338175575676e+00
2.432655096054077148e+00,2.552357620281889616e+00
2.434652328491210938e+00,2.551570838877062819e+00
2.436651468276977539e+00,2.552457756097049391e+00
2.438664913177490234e+00,2.553609317971386794e+00
2.440655231475830078e+00,2.551586932133070640e+00
2.442652225494384766e+00,2.553701705181802062e+00
2.444652557373046875e+00,2.554281062398083613e+00
2.446651458740234375e+00,2.554705447519475037e+00
2.448650598526000977e+00,2.554894990312456038e+00
2.450654983520507812e+00,2.554307884491429981e+00
2.452652692794799805e+00,2.553763097973239304e+00
2.454650402069091797e+00,2.554287022863271694e+00
2.456650733947753906e+00,2.555136985199092159e+00
2.458650112152099609e+00,2.555917806138730874e+00
2.460649967193603516e+00,2.556535906378734957e+00
2.462649822235107422e+00,2.556663460333759907e+00
2.464648962020874023e+00,2.556296891724692877e+00
2.467282295227050781e+00,2.556263513119639619e+00
2.469222545623779297e+00,2.561062283642564275e+00
2.471666097640991211e+00,2.510561646290021542e+00
2.473689317703247070e+00,2.534140650527554772e+00
2.475660562515258789e+00,2.508642376499459203e+00
2.477650403976440430e+00,2.530897561418719466e+00
2.479649543762207031e+00,2.533950511688054963e+00
2.481649160385131836e+00,2.534410659600574878e+00
2.483649015426635742e+00,2.536121909156073162e+00
2.485648155212402344e+00,2.536675040325527153e+00
2.487649202346801758e+00,2.540586297581946429e+00
2.489646673202514648e+00,2.541413014103533374e+00
2.491650104522705078e+00,2.543520038547520290e+00
2.493648290634155273e+00,2.544063036926154542e+00
2.495648384094238281e+00,2.546308344162504955e+00
2.497647047042846680e+00,2.546840017657281852e+00
2.499647617340087891e+00,2.548147743719547442e+00
2.501646518707275391e+00,2.549350565594502349e+00
2.503647089004516602e+00,2.549568718620386143e+00
2.505645751953125000e+00,2.550050920254101960e+00
2.507646322250366211e+00,2.552022046091800611e+00
2.509645462036132812e+00,2.553234404711056449e+00
2.511646509170532227e+00,2.554701275193843379e+00
2.513645172119140625e+00,2.553450173550865010e+00
2.515646934509277344e+00,2.555309838689546531e+00
2.517645120620727539e+00,2.555339641015486940e+00
2.519645452499389648e+00,2.555384344504397554e+00
2.521644353866577148e+00,2.556870288475786346e+00
2.523645401000976562e+00,2.557154602665257848e+00
2.525644302368164062e+00,2.559017248036533410e+00
2.527644634246826172e+00,2.559300370132967295e+00
2.529643774032592773e+00,2.559678263625891681e+00
2.531644821166992188e+00,2.560232586888383288e+00
2.533643960952758789e+00,2.559963769908400799e+00
2.535645008087158203e+00,2.560919828524569120e+00
2.537643671035766602e+00,2.560650415498067822e+00
2.539645433425903320e+00,2.562191195749186967e+00
2.541675090789794922e+00,2.559323019900682006e+00
2.543666601181030273e+00,2.552528685632787564e+00
2.545656204223632812e+00,2.558750219196107345e+00
2.547657489776611328e+00,2.558481998262643664e+00
2.549656391143798828e+00,2.560087747584312901e+00
2.551716804504394531e+00,2.560378022238972484e+00
2.553688287734985352e+00,2.551186388872431543e+00
2.555660724639892578e+00,2.546512192071937353e+00
2.557654857635498047e+00,2.549076384195850586e+00
2.559654951095581055e+00,2.552559084005246781e+00
2.561653375625610352e+00,2.552984661219675822e+00
2.563653945922851562e+00,2.554381198213243387e+00
2.565652847290039062e+00,2.555848664742549126e+00
2.567653894424438477e+00,2.556156820792772955e+00
2.569651603698730469e+00,2.553437060527451230e+00
2.571655035018920898e+00,2.558048672443470117e+00
2.573655605316162109e+00,2.555928534976069422e+00
2.575663328170776367e+00,2.559046454315955010e+00
2.577653646469116211e+00,2.559536404554415334e+00
2.579654932022094727e+00,2.560299940145008613e+00
2.581653118133544922e+00,2.560580082008848457e+00
2.583654880523681641e+00,2.561042018060924796e+00
2.585653305053710938e+00,2.561225600388717716e+00
2.587654113769531250e+00,2.561955161327738928e+00
2.589653015136718750e+00,2.564038939957492325e+00
2.591654062271118164e+00,2.563230700877988433e+00
2.593651771545410156e+00,2.563997216701175752e+00
2.595653772354125977e+00,2.565594025325062866e+00
2.597652435302734375e+00,2.564597435545615589e+00
2.599653244018554688e+00,2.563924499025881154e+00
2.601651668548583984e+00,2.563700981581328087e+00
2.603657245635986328e+00,2.564593859266502740e+00
2.605649709701538086e+00,2.564808436013273685e+00
2.607652902603149414e+00,2.563546009486437960e+00
2.609651088714599609e+00,2.565247126251116505e+00
2.611652374267578125e+00,2.566098280679974586e+00
2.613650321960449219e+00,2.564412661124785053e+00
2.615651845932006836e+00,2.565131493226467718e+00
2.617650508880615234e+00,2.564710088337670335e+00
2.619651794433593750e+00,2.564999766945811110e+00
2.621649742126464844e+00,2.565255470902379820e+00
2.623651504516601562e+00,2.564944930666080758e+00
2.625649690628051758e+00,2.565141626017287457e+00
2.627650737762451172e+00,2.566052385098026356e+00
2.629649162292480469e+00,2.565151162761588388e+00
2.631650447845458984e+00,2.564739294617091936e+00
2.633648633956909180e+00,2.563580580184528834e+00
2.635649919509887695e+00,2.562393255519062940e+00
2.637648344039916992e+00,2.562164969702359407e+00
2.639649868011474609e+00,2.563218183901093461e+00
2.641648769378662109e+00,2.563484616695000717e+00
2.643649578094482422e+00,2.563419647624450626e+00
2.645648956298828125e+00,2.563097782504294209e+00
2.647649049758911133e+00,2.562733598081302411e+00
2.649647951126098633e+00,2.561725683417997779e+00
2.651648759841918945e+00,2.561110563410587737e+00
2.653647899627685547e+00,2.559523291531001554e+00
2.655648708343505859e+00,2.559978671071371004e+00
2.657647371292114258e+00,2.560386962936754607e+00
2.659647941589355469e+00,2.560494847356658887e+00
2.661647081375122070e+00,2.561058111316932617e+00
2.663647413253784180e+00,2.559979863164408620e+00
2.665647029876708984e+00,2.559914298047339720e+00
2.667648077011108398e+00,2.558803267336281273e+00
2.669646263122558594e+00,2.557571239181904765e+00
2.671647310256958008e+00,2.558900422918847006e+00
2.673645019531250000e+00,2.556939429871968095e+00
2.675646543502807617e+00,2.557415074993977022e+00
2.677645444869995117e+00,2.558052844769101775e+00
2.679646015167236328e+00,2.557239837317447417e+00
2.681644678115844727e+00,2.555908865440948752e+00
2.683645725250244141e+00,2.555328316131629585e+00
2.685645341873168945e+00,2.553909129370347308e+00
2.687645912170410156e+00,2.555505341947715614e+00
2.689644336700439453e+00,2.554638690309368521e+00
2.691645145416259766e+00,2.555011815430142441e+00
2.693644046783447266e+00,2.555373019620540198e+00
2.695644378662109375e+00,2.555541104738844105e+00
2.697643995285034180e+00,2.554862803800440396e+00
2.699644804000854492e+00,2.553639120297327203e+00
2.701643943786621094e+00,2.553659981925485489e+00
2.703644037246704102e+00,2.553683227739719008e+00
2.705651521682739258e+00,2.553708857740027760e+00
2.707647085189819336e+00,2.552884525404516047e+00
2.709644079208374023e+00,2.552742666333039701e+00
2.711644172668457031e+00,2.553459114248647133e+00
2.713643550872802734e+00,2.551693028413418496e+00
2.715644121170043945e+00,2.551168507476867298e+00
2.717643499374389648e+00,2.551999992370604708e+00
2.719644546508789062e+00,2.552599019122006929e+00
2.721642255783081055e+00,2.553428715876187916e+00
2.723643302917480469e+00,2.553207582617710081e+00
2.725641727447509766e+00,2.554534382168577089e+00
2.727642774581909180e+00,2.555199570083567018e+00
2.729641675949096680e+00,2.555365271015795692e+00
2.731643199920654297e+00,2.554532594029020665e+00
2.733641147613525391e+00,2.553631371692582697e+00
2.735644578933715820e+00,2.555277056131012081e+00
2.737643957138061523e+00,2.554995126127615812e+00
2.739641904830932617e+00,2.556963271732720422e+00
2.741640090942382812e+00,2.557868666394790047e+00
2.743641376495361328e+00,2.559323615947200814e+00
2.745644807815551758e+00,2.560437626890853302e+00
2.747710227966308594e+00,2.557542032902483164e+00
2.749727725982666016e+00,2.508797944640868138e+00
2.751720190048217773e+00,2.497535049621468772e+00
2.753865957260131836e+00,2.487509547175115188e+00
2.755840778350830078e+00,2.472518381180570213e+00
2.758789539337158203e+00,2.465838487844286941e+00
2.760766744613647461e+00,2.456239158658881205e+00
2.762675762176513672e+00,2.479738292662893695e+00
2.764639854431152344e+00,2.490974961635465945e+00
2.766636610031127930e+00,2.496699988448618512e+00
2.768636941909790039e+00,2.503869832023362108e+00
2.770635843276977539e+00,2.508678139290587694e+00
2.772638082504272461e+00,2.516140641706066550e+00
2.774636268615722656e+00,2.519851627332166277e+00
2.776638269424438477e+00,2.527549568122573920e+00
2.778636217117309570e+00,2.532764975162145493e+00
2.780636548995971680e+00,2.538644378023669379e+00
2.782635450363159180e+00,2.540027205947304356e+00
2.784634828567504883e+00,2.547066515334429404e+00
2.786634445190429688e+00,2.551905220974114208e+00
2.788634777069091797e+00,2.557763166160960999e+00
2.790634632110595703e+00,2.561675019463899083e+00
2.792641639709472656e+00,2.568643995361804322e+00
2.794637680053710938e+00,2.571422168185969248e+00
2.796638488769531250e+00,2.576322862663610103e+00
2.798636913299560547e+00,2.579915235032467447e+00
2.800649166107177734e+00,2.584670494159519105e+00
2.802637815475463867e+00,2.588785003278851971e+00
2.804637193679809570e+00,2.593970607992483135e+00
2.806636095046997070e+00,2.597006868959292003e+00
2.808636426925659180e+00,2.601632189945243478e+00
2.810635566711425781e+00,2.604455066258319018e+00
2.812636375427246094e+00,2.608303738630263435e+00
2.814635753631591797e+00,2.610295130049602008e+00
2.816635370254516602e+00,2.614205195212983668e+00
2.818635225296020508e+00,2.616168572445937812e+00
2.820636749267578125e+00,2.619282319460191744e+00
2.822634458541870117e+00,2.621121122970714978e+00
2.824634313583374023e+00,2.625248149066942815e+00
2.826634168624877930e+00,2.627097085368285789e+00
2.828635454177856445e+00,2.630005196333550899e+00
2.830634355545043945e+00,2.631309942163222004e+00
2.832633733749389648e+00,2.632822708227957165e+00
2.834633588790893555e+00,2.632823900320994781e+00
2.836634159088134766e+00,2.634530977550861408e+00
2.838632822036743164e+00,2.637769298287546249e+00
2.840634107589721680e+00,2.638171033641222962e+00
2.842632770538330078e+00,2.639813737847058306e+00
2.844633579254150391e+00,2.639951424592902995e+00
2.846637725830078125e+00,2.639916853894812121e+00
2.848694086074829102e+00,2.640033679012498524e+00
2.850640058517456055e+00,2.607626033738378535e+00
2.852667570114135742e+00,2.629221991207836950e+00
2.854640245437622070e+00,2.607770276995930114e+00
2.856633901596069336e+00,2.624431565336175609e+00
2.858634710311889648e+00,2.624450638824777471e+00
2.860634565353393555e+00,2.624162748356193120e+00
2.862632513046264648e+00,2.625719025816801278e+00
2.864631175994873047e+00,2.625415638138727914e+00
2.866631507873535156e+00,2.625095561158127921e+00
2.868636131286621094e+00,2.623812273003133910e+00
2.870632648468017578e+00,2.621448948556059477e+00
2.872631072998046875e+00,2.623212650205212881e+00
2.874630451202392578e+00,2.622003867865069893e+00
2.876631259918212891e+00,2.622610643221216620e+00
2.878630161285400391e+00,2.621887638793902298e+00
2.880630016326904297e+00,2.620876147851484816e+00
2.882629871368408203e+00,2.619846179466984282e+00
2.884629964828491211e+00,2.617863132698909467e+00
2.886628866195678711e+00,2.617521001997113572e+00
2.888629436492919922e+00,2.616847469430860329e+00
2.890629291534423828e+00,2.614658786613796693e+00
2.892629146575927734e+00,2.614904357779545663e+00
2.894628524780273438e+00,2.613056613571240305e+00
2.896629810333251953e+00,2.611360265178712226e+00
2.898637771606445312e+00,2.608746005147219105e+00
2.900628805160522461e+00,2.606744480937061237e+00
2.902628660202026367e+00,2.606499505817831075e+00
2.904630184173583984e+00,2.604404402304220323e+00
2.906627178192138672e+00,2.600322079696903099e+00
2.908628463745117188e+00,2.601993990182160044e+00
2.910626888275146484e+00,2.599140715496625287e+00
2.912627220153808594e+00,2.597638678269228674e+00
2.914627075195312500e+00,2.594167303343689834e+00
2.916627407073974609e+00,2.594457577998349418e+00
2.918627023696899414e+00,2.591420720985021742e+00
2.920629262924194336e+00,2.590084384689853803e+00
2.922626495361328125e+00,2.587541650240618107e+00
2.924627065658569336e+00,2.587532709542835985e+00
2.926625967025756836e+00,2.586924742093651641e+00
2.928626060485839844e+00,2.586189816735961156e+00
2.930625677108764648e+00,2.584195445084028986e+00
2.932626485824584961e+00,2.582658837158541498e+00
2.934625864028930664e+00,2.580395648526626839e+00
2.936625003814697266e+00,2.579953978056189978e+00
2.938625097274780273e+00,2.579133221999791115e+00
2.940625429153442383e+00,2.577940532915655503e+00
2.942625284194946289e+00,2.577602574539491265e+00
2.944632530212402344e+00,2.576854536158386999e+00
2.946659088134765625e+00,2.572070666798432548e+00
2.948629140853881836e+00,2.559640116648687957e+00
2.950624942779541016e+00,2.560980029222968746e+00
2.952643394470214844e+00,2.560656972009774712e+00
2.954626083374023438e+00,2.553041881685481407e+00
2.956624507904052734e+00,2.558839626173928572e+00
2.958621263504028320e+00,2.556920952429885041e+00
2.960621595382690430e+00,2.557637996392011281e+00
2.962620735168457031e+00,2.556870884522305154e+00
2.964621305465698242e+00,2.556435770563575183e+00
2.966620445251464844e+00,2.555392689155660868e+00
2.968624830245971680e+00,2.555006451011473168e+00
2.970623970031738281e+00,2.555082148919361806e+00
2.972622871398925781e+00,2.556478089866410564e+00
2.974622726440429688e+00,2.555378384039209472e+00
2.976622581481933594e+00,2.556773728939739421e+00
2.978622198104858398e+00,2.555746144741314119e+00
2.980622053146362305e+00,2.555287784968350628e+00
2.982621669769287109e+00,2.555635280088815797e+00
2.984622001647949219e+00,2.556110925210824725e+00
2.986621379852294922e+00,2.556103772652599027e+00
2.988621473312377930e+00,2.556023902419078730e+00
2.990620374679565430e+00,2.556559748239487284e+00
2.992621183395385742e+00,2.557887143836873101e+00
2.994621038436889648e+00,2.558127350583952797e+00
2.996620655059814453e+00,2.557369179412028792e+00
2.998619794845581055e+00,2.557167715688671628e+00
3.000619888305664062e+00,2.557673759183139772e+00
3.002619504928588867e+00,2.556214041258578540e+00
3.004619598388671875e+00,2.556891150103944632e+00
3.006619930267333984e+00,2.557777471277412396e+00
3.008619546890258789e+00,2.557717270579012769e+00
3.010619401931762695e+00,2.558639950590127832e+00
3.012619733810424805e+00,2.556515044750576671e+00
3.014618873596191406e+00,2.557559318251528602e+00
3.016618967056274414e+00,2.557546205228114822e+00
3.018618106842041016e+00,2.556913203825140535e+00
3.020618200302124023e+00,2.557004398942518186e+00
3.022618055343627930e+00,2.557104534757677960e+00
3.024617910385131836e+00,2.557838864068849638e+00
3.026618480682373047e+00,2.558131522909584454e+00
3.028618097305297852e+00,2.557789392207788559e+00
3.030617237091064453e+00,2.557772702905261930e+00
3.032617330551147461e+00,2.557587928484431394e+00
3.034616470336914062e+00,2.557582564065762121e+00
3.036617517471313477e+00,2.556725449171715958e+00
3.038616657257080078e+00,2.558035559420056337e+00
3.040616273880004883e+00,2.558155960816855590e+00
3.042617082595825195e+00,2.559464282925639544e+00
3.044616460800170898e+00,2.559502429902843268e+00
3.046615839004516602e+00,2.558130330816546838e+00
3.048616170883178711e+00,2.560035295490657781e+00
3.050616264343261719e+00,2.558520741286366196e+00
3.052615880966186523e+00,2.559167451759273071e+00
3.054615259170532227e+00,2.559984035490040277e+00
3.056616067886352539e+00,2.559712834323982555e+00
3.058614730834960938e+00,2.560426302006995947e+00
3.060615539550781250e+00,2.561285205040598534e+00
3.062615156173706055e+00,2.561012215734984387e+00
3.064614534378051758e+00,2.560819692709409345e+00
3.066614151000976562e+00,2.559849925023308437e+00
3.068615198135375977e+00,2.559675879439816448e+00
3.070614576339721680e+00,2.559354014319660031e+00
3.072613954544067383e+00,2.560158677120051074e+00
3.074614286422729492e+00,2.560623593404721454e+00
3.076614379882812500e+00,2.559402890134202302e+00
3.078613758087158203e+00,2.560011453629905454e+00
3.080613374710083008e+00,2.559303350365561336e+00
3.082613229751586914e+00,2.559717602696133021e+00
3.084613084793090820e+00,2.559349245947509566e+00
3.086612701416015625e+00,2.558712668265422430e+00
3.088613271713256836e+00,2.560067482002673422e+00
3.090611934661865234e+00,2.558422989657281654e+00
3.092613935470581055e+00,2.560425109913958330e+00
3.094613075256347656e+00,2.560674853405338958e+00
3.096611976623535156e+00,2.559554881996498388e+00
3.098611593246459961e+00,2.560403652239281236e+00
3.100612640380859375e+00,2.560068078049192231e+00
3.102612018585205078e+00,2.559861845953684600e+00
3.104611873626708984e+00,2.559988207815671934e+00
3.106611251831054688e+00,2.559884495721399311e+00
3.108611583709716797e+00,2.560479946193688683e+00
3.110611438751220703e+00,2.560217685725413084e+00
3.112611055374145508e+00,2.560218281771931892e+00
3.114610195159912109e+00,2.557360238714246670e+00
3.116611003875732422e+00,2.557581968019243313e+00
3.118610620498657227e+00,2.556897706615651522e+00
3.120610475540161133e+00,2.557209438944988200e+00
3.122610092163085938e+00,2.557926482907114440e+00
3.124609470367431641e+00,2.558010525466266394e+00
3.126610040664672852e+00,2.559376664087374742e+00
3.128614425659179688e+00,2.559624023392680137e+00
3.130609273910522461e+00,2.558929629198268607e+00
3.132608652114868164e+00,2.559719986882208254e+00
3.134609222412109375e+00,2.558530278030667127e+00
3.136609315872192383e+00,2.558153576630780357e+00
3.138608932495117188e+00,2.559156722921934524e+00
3.140609264373779297e+00,2.558805651522356506e+00
3.142608880996704102e+00,2.559954233164099868e+00
3.144608259201049805e+00,2.560789294336950128e+00
3.146607637405395508e+00,2.559650249439507697e+00
3.148607969284057617e+00,2.560118742003290926e+00
3.150609016418457031e+00,2.560363717122521088e+00
3.152616500854492188e+00,2.558881349430245145e+00
3.154609680175781250e+00,2.557498521506610167e+00
3.156614303588867188e+00,2.558859891755568050e+00
3.158606529235839844e+00,2.558700151288527458e+00
3.160606145858764648e+00,2.558602995705961725e+00
3.162606000900268555e+00,2.558641738729684256e+00
3.164607524871826172e+00,2.558074898490297677e+00
3.166604995727539062e+00,2.557834691743217981e+00
3.168611288070678711e+00,2.557071752199143511e+00
3.170607805252075195e+00,2.557359046621209053e+00
3.172607660293579102e+00,2.558222121980443298e+00
3.174607038497924805e+00,2.557892508255542374e+00
3.176606893539428711e+00,2.558953471059020934e+00
3.178606748580932617e+00,2.558667368729993008e+00
3.180606842041015625e+00,2.558746046870475688e+00
3.182607173919677734e+00,2.558675713381256323e+00
3.184607982635498047e+00,2.558185167096277191e+00
3.189846038818359375e+00,2.555176920315852307e+00
3.193311691284179688e+00,2.555680579624245219e+00
3.197250127792358398e+00,2.549872702344978315e+00
3.201216220855712891e+00,2.549785679553232320e+00
3.205244302749633789e+00,2.561239905505169112e+00
3.209259271621704102e+00,2.545642560200996218e+00
3.213174819946289062e+00,2.559907145489114022e+00
3.217159986495971680e+00,2.567364879532441968e+00
3.221158027648925781e+00,2.614653422195127419e+00
3.225155830383300781e+00,2.582619498088300158e+00
3.229158401489257812e+00,2.588340352575821068e+00
3.233155250549316406e+00,2.592387508438528609e+00
3.237154960632324219e+00,2.596345853369933732e+00
3.241153001785278320e+00,2.600067567833372006e+00
3.245151519775390625e+00,2.603336882989034873e+00
3.249152898788452148e+00,2.604323339977662410e+00
3.253151655197143555e+00,2.609410000969171861e+00
3.257153272628784180e+00,2.604379368350430379e+00
3.261150836944580078e+00,2.606477452096635172e+00
3.265150785446166992e+00,2.605660272319349158e+00
3.269149065017700195e+00,2.610314799584722678e+00
3.273149967193603516e+00,2.602807593680333209e+00
3.277149200439453125e+00,2.606777263495595687e+00
3.281149625778198242e+00,2.598750305026805929e+00
3.285286188125610352e+00,2.602394533442799140e+00
3.289309978485107422e+00,2.592807721234288376e+00
3.293493747711181641e+00,2.593753051013118149e+00
3.297490358352661133e+00,2.592494200765395274e+00
3.301489114761352539e+00,2.591984580991814280e+00
3.305498123168945312e+00,2.589865635617451201e+00
3.309495687484741211e+00,2.587655495125710470e+00
3.313488006591796875e+00,2.586646388369368221e+00
3.317488908767700195e+00,2.581417272259864060e+00
3.321486711502075195e+00,2.580999443650179526e+00
3.325487613677978516e+00,2.581039974813458482e+00
3.329487323760986328e+00,2.579569528051558702e+00
3.333486557006835938e+00,2.616186453841502058e+00
3.337485074996948242e+00,2.612642361240668620e+00
3.341486215591430664e+00,2.572475978431222110e+00
3.345485448837280273e+00,2.571222492602168508e+00
3.349485635757446289e+00,2.568477698383056840e+00
3.353487491607666016e+00,2.565188117645754495e+00
3.357488393783569336e+00,2.561235137133018647e+00
3.361484289169311523e+00,2.561848469000872264e+00
3.365486145019531250e+00,2.559659190137289819e+00
3.369483232498168945e+00,2.557266063364274977e+00
3.373485803604125977e+00,2.555967277999791953e+00
3.377481460571289062e+00,2.554641074495443753e+00
3.381480455398559570e+00,2.553327984014509333e+00
3.385604143142700195e+00,2.551166719337310873e+00
3.389634370803833008e+00,2.550020521881642743e+00
3.393908262252807617e+00,2.553287452851230377e+00
3.398903369903564453e+00,2.547080224404361992e+00
3.403911352157592773e+00,2.545125787869189526e+00
3.408906459808349609e+00,2.544421260883958258e+00
3.413904666900634766e+00,2.544264500649511707e+00
3.418903589248657227e+00,2.541911905039775821e+00
3.423906087875366211e+00,2.541674678525290165e+00
3.428904056549072266e+00,2.542812531329694981e+00
3.433902502059936523e+00,2.541008894563781428e+00
3.438901662826538086e+00,2.540643518047752014e+00
3.443904161453247070e+00,2.541839783411000031e+00
3.448902130126953125e+00,2.541779582712600405e+00
3.453901767730712891e+00,2.540951078051457035e+00
3.458898544311523438e+00,2.542520468535478972e+00
3.463905572891235352e+00,2.542883460865433154e+00
3.468901395797729492e+00,2.542515700163328507e+00
3.473900318145751953e+00,2.543374007150412286e+00
3.478898286819458008e+00,2.543802564597435367e+00
3.483901262283325195e+00,2.544154828090051002e+00
3.488974571228027344e+00,2.543980186460040205e+00
3.493486404418945312e+00,2.539726798501825034e+00
3.497475385665893555e+00,2.542521660628516589e+00
3.501475095748901367e+00,2.545112674845775746e+00
3.505474090576171875e+00,2.546833461145574962e+00
3.509472131729125977e+00,2.548587626050427879e+00
3.513473272323608398e+00,2.550225561884112757e+00
3.517473459243774414e+00,2.551545208876754067e+00
3.521475791931152344e+00,2.554256028444293669e+00
3.525470018386840820e+00,2.554785913799514141e+00
3.529487848281860352e+00,2.558571405240464891e+00
3.533477544784545898e+00,2.559126920595994115e+00
3.537472009658813477e+00,2.560766644569235417e+00
3.541469573974609375e+00,2.563758202047133672e+00
3.545469045639038086e+00,2.567662902791846058e+00
3.549469232559204102e+00,2.569490977465030745e+00
3.553469657897949219e+00,2.571893640982346518e+00
3.557469367980957031e+00,2.570141860263569278e+00
3.561468362808227539e+00,2.615176751038641001e+00
3.565468549728393555e+00,2.578471014317395227e+00
3.569466352462768555e+00,2.580270478757677122e+00
3.573469400405883789e+00,2.584450552994078887e+00
3.577465057373046875e+00,2.587902258384497056e+00
3.581466913223266602e+00,2.589351843518238550e+00
3.585466623306274414e+00,2.591346215170170719e+00
3.589580059051513672e+00,2.591611455871040359e+00
3.593948364257812500e+00,2.598508906186688616e+00
3.599011898040771484e+00,2.581214616443469279e+00
3.604012966156005859e+00,2.614848329406777694e+00
3.608909845352172852e+00,2.581906030405286767e+00
3.613895893096923828e+00,2.586223195341014414e+00
3.618985414505004883e+00,2.613966776605460396e+00
3.623932600021362305e+00,2.563587732742754532e+00
3.628864526748657227e+00,2.580150077360877869e+00
3.633855819702148438e+00,2.583657811124064008e+00
3.638854265213012695e+00,2.586957524652186091e+00
3.643855810165405273e+00,2.590770434233002018e+00
3.648856878280639648e+00,2.592562746115058214e+00
3.653851032257080078e+00,2.593024086120615745e+00
3.658848762512207031e+00,2.595105480564293909e+00
3.663855552673339844e+00,2.594884943352334883e+00
3.668851375579833984e+00,2.594046901946890582e+00
3.673849344253540039e+00,2.593993257760197846e+00
3.678848266601562500e+00,2.592699240767865287e+00
3.683854818344116211e+00,2.592113923086395655e+00
3.688835859298706055e+00,2.589289258633763691e+00
3.693117141723632812e+00,2.585386942075126537e+00
3.697114706039428711e+00,2.580188820384600401e+00
3.701115846633911133e+00,2.616615011288525139e+00
3.705114603042602539e+00,2.614283277306947539e+00
3.709115266799926758e+00,2.611565901227701048e+00
3.713111877441406250e+00,2.577188918255438388e+00
3.717113733291625977e+00,2.567195006274581637e+00
3.721113681793212891e+00,2.564550943917148551e+00
3.725114107131958008e+00,2.563328452507072974e+00
3.729112386703491211e+00,2.567633100465905649e+00
3.733115196228027344e+00,2.559839792232488698e+00
3.737112998962402344e+00,2.557370371505066409e+00
3.741113424301147461e+00,2.556023306372559922e+00
3.745111942291259766e+00,2.554984397290277265e+00
3.749110937118530273e+00,2.558913535942260786e+00
3.753112077713012695e+00,2.551428383759067664e+00
3.757116794586181641e+00,2.548567956515307209e+00
3.761111021041870117e+00,2.549578255364687074e+00
3.765110731124877930e+00,2.548995917915811482e+00
3.769111156463623047e+00,2.547217911150206682e+00
3.773110151290893555e+00,2.547457521850767570e+00
3.777108907699584961e+00,2.547789519761743726e+00
3.781111001968383789e+00,2.547440832548240941e+00
3.785107612609863281e+00,2.552585310052074341e+00
3.789401292800903320e+00,2.547763889761434974e+00
3.793570280075073242e+00,2.524881067857869699e+00
3.797656297683715820e+00,2.520255150825399415e+00
3.801691532135009766e+00,2.510962189550660639e+00
3.805668592453002930e+00,2.505601347160499870e+00
3.809653043746948242e+00,2.535822693803631456e+00
3.813695669174194336e+00,2.490586339305203012e+00
3.817867994308471680e+00,2.488115726484743107e+00
3.821771860122680664e+00,2.461615498258530987e+00
3.825622797012329102e+00,2.474310693062626409e+00
3.829494237899780273e+00,2.478750643581228541e+00
3.833436727523803711e+00,2.478912172187825558e+00
3.837455749511718750e+00,2.480781374070808010e+00
3.841433525085449219e+00,2.480207977319714541e+00
3.845424652099609375e+00,2.488771377655432104e+00
3.849419832229614258e+00,2.492059170253178024e+00
3.853452444076538086e+00,2.495763599367570862e+00
3.857516050338745117e+00,2.491113840474348251e+00
3.861540555953979492e+00,2.495929300299799536e+00
3.865531682968139648e+00,2.502783239219574796e+00
3.869524478912353516e+00,2.507719100441825333e+00
3.873493909835815430e+00,2.515700759375186113e+00
3.877555370330810547e+00,2.521454396421241473e+00
3.881513357162475586e+00,2.521777453634435506e+00
3.885499238967895508e+00,2.527071538814489760e+00
3.889469861984252930e+00,2.532379333064476601e+00
3.892402410507202148e+00,2.538582389185713328e+00
3.895412206649780273e+00,2.529193464421446880e+00
3.898400306701660156e+00,2.526346746247619013e+00
3.901405811309814453e+00,2.525124254837543436e+00
3.904411554336547852e+00,2.523882689938865997e+00
3.907569885253906250e+00,2.522434296898162120e+00
3.910418987274169922e+00,2.522686424575617981e+00
3.913614034652709961e+00,2.522749605506611648e+00
3.916413068771362305e+00,2.514396609592033371e+00
3.919417142868041992e+00,2.510758937687747050e+00
3.922419786453247070e+00,2.501215040828590475e+00
3.925447940826416016e+00,2.485725579944322305e+00
3.928411245346069336e+00,2.473756369800134802e+00
3.931499958038330078e+00,2.468177970430609047e+00
3.934478998184204102e+00,2.454240018634798570e+00
3.937419414520263672e+00,2.462600763154120909e+00
3.940412998199462891e+00,2.464241679220399828e+00
3.943415880203247070e+00,2.366215868737205241e+00
3.946470737457275391e+00,2.426424911788095606e+00
3.949408531188964844e+00,2.426173976203677363e+00
3.952404737472534180e+00,2.435456804687595955e+00
3.955595493316650391e+00,2.441568665691455031e+00
3.958553075790405273e+00,2.423852375012919502e+00
3.961453199386596680e+00,2.438661746819227538e+00
3.964426040649414062e+00,2.351514381350801042e+00
3.967444658279418945e+00,2.418199469828542281e+00
3.970413684844970703e+00,2.426064899690735466e+00
3.973414182662963867e+00,2.436721019353988105e+00
3.976392745971679688e+00,2.446940236918954348e+00
3.979390621185302734e+00,2.454968983527300974e+00
3.982399940490722656e+00,2.381734535900895011e+00
3.985582113265991211e+00,2.438222460534865910e+00
3.988574504852294922e+00,2.444461875493749936e+00
3.991178989410400391e+00,2.450381213472033970e+00
3.993809223175048828e+00,2.429761580200383797e+00
3.995870113372802734e+00,2.427690318547525372e+00
3.999146938323974609e+00,2.409829188564919011e+00
4.001173973083496094e+00,2.353607100678336561e+00
4.003591060638427734e+00,2.318333663741786843e+00
4.005571603775024414e+00,2.377546713059748740e+00
4.007554769515991211e+00,2.383235977081772816e+00
4.009580612182617188e+00,2.388990210174346984e+00
4.011601448059082031e+00,2.383470223363664431e+00
4.013586759567260742e+00,2.381955669159372846e+00
4.015567779541015625e+00,2.385027692917310205e+00
4.017584800720214844e+00,2.395008491874753620e+00
4.019569635391235352e+00,2.393960046048170032e+00
4.021560430526733398e+00,2.354715747203319776e+00
4.023624658584594727e+00,2.335025350454491555e+00
4.025593996047973633e+00,2.355900687682710437e+00
4.027547836303710938e+00,2.398936438433699525e+00
4.029535770416259766e+00,2.437644891458140783e+00
4.031534910202026367e+00,2.458452279383215977e+00
4.033533096313476562e+00,2.474530038181547820e+00
4.035538911819458008e+00,2.490217386510060749e+00
4.037534713745117188e+00,2.505839765768023142e+00
4.039533853530883789e+00,2.523034515742601958e+00
4.041532278060913086e+00,2.510479391870426014e+00
4.043533802032470703e+00,2.462591822456338786e+00
4.045532226562500000e+00,2.525794807171202638e+00
4.047532081604003906e+00,2.542468016441823853e+00
4.049531459808349609e+00,2.556048936372868674e+00
4.051535129547119141e+00,2.570228883055315272e+00
4.053535223007202148e+00,2.582723806229091590e+00
4.055534839630126953e+00,2.596856069190033534e+00
4.057534933090209961e+00,2.608902169335146848e+00
4.059533834457397461e+00,2.620792701338851671e+00
4.061534166336059570e+00,2.628212288404975894e+00
4.063534021377563477e+00,2.638464884574995395e+00
4.065533399581909180e+00,2.648625093534600072e+00
4.067535638809204102e+00,2.656515557350582757e+00
4.069532155990600586e+00,2.664391716050114045e+00
4.071534395217895508e+00,2.673172673365196594e+00
4.073532581329345703e+00,2.581872055753714701e+00
4.075534105300903320e+00,2.644884901629078744e+00
4.077531337738037109e+00,2.654590923141351144e+00
4.079533815383911133e+00,2.660994846939426228e+00
4.081531286239624023e+00,2.667782028649094972e+00
4.083534002304077148e+00,2.650722581234286057e+00
4.085552453994750977e+00,2.583566616006686356e+00
4.087584495544433594e+00,2.637069539674465446e+00
4.089537143707275391e+00,2.588498900949824044e+00
4.091531038284301758e+00,2.633955792660211515e+00
4.093529224395751953e+00,2.640452699715220675e+00
4.095530033111572266e+00,2.647556382126377006e+00
4.097529411315917969e+00,2.651416975428697587e+00
4.099530696868896484e+00,2.656952459448869153e+00
4.101533174514770508e+00,2.659068424590638191e+00
4.103532552719116211e+00,2.664283235583690956e+00
4.105527162551879883e+00,2.628979996321200829e+00
4.107528686523437500e+00,2.589378069565066109e+00
4.109527587890625000e+00,2.634413556386656197e+00
4.111531734466552734e+00,2.639985399244475062e+00
4.113528728485107422e+00,2.610386325166979660e+00
4.115527629852294922e+00,2.630155400056290560e+00
4.117534160614013672e+00,2.634153680104455830e+00
4.119527101516723633e+00,2.637839035730246806e+00
4.121526718139648438e+00,2.640496807157612480e+00
4.123529195785522461e+00,2.644129710689748780e+00
4.125529766082763672e+00,2.635550217098023396e+00
4.127530574798583984e+00,2.480120358481449738e+00
4.129528522491455078e+00,2.574201533103171791e+00
4.131530046463012695e+00,2.581086466441925520e+00
4.133527994155883789e+00,2.586013983012912743e+00
4.135530710220336914e+00,2.591318200983786735e+00
4.137524843215942383e+00,2.594574999162554629e+00
4.139527082443237305e+00,2.600196313881434573e+00
4.141529798507690430e+00,2.602754545540159281e+00
4.143528699874877930e+00,2.607333374897643719e+00
4.145529031753540039e+00,2.572191068195231800e+00
4.147531509399414062e+00,2.577852914077390700e+00
4.149526834487915039e+00,2.587939809315181972e+00
4.151529550552368164e+00,2.592178296110426938e+00
4.153527975082397461e+00,2.592463802392936056e+00
4.155538082122802734e+00,2.596046638017492025e+00
4.157529115676879883e+00,2.573979207751656340e+00
4.159675836563110352e+00,2.492201029324654371e+00
4.161557435989379883e+00,2.547790115808262534e+00
4.163528203964233398e+00,2.557973570582100287e+00
4.165525674819946289e+00,2.568256565124579005e+00
4.167636394500732422e+00,2.572551080292591941e+00
4.169527530670166016e+00,2.574388095663558751e+00
4.171527147293090820e+00,2.573600718212213145e+00
4.173685550689697266e+00,2.573905894029842933e+00
4.175565242767333984e+00,2.583437273912104981e+00
4.177616357803344727e+00,2.580577442714863334e+00
4.179526805877685547e+00,2.560433454565221645e+00
4.181527853012084961e+00,2.571709462608034791e+00
4.183527469635009766e+00,2.544054692274891227e+00
4.185522317886352539e+00,2.530819479324755594e+00
4.187524080276489258e+00,2.430874995097517477e+00
4.189523696899414062e+00,2.503414452482992658e+00
4.191526174545288086e+00,2.510428131869808510e+00
4.193668603897094727e+00,2.520203294778263103e+00
4.195621252059936523e+00,2.517103852880460568e+00
4.197522640228271484e+00,2.520407738734214309e+00
4.199525594711303711e+00,2.512557806081510137e+00
4.201523065567016602e+00,2.497482001481294844e+00
4.203524589538574219e+00,2.516646089154015886e+00
4.205521821975708008e+00,2.509032190922759753e+00
4.207523822784423828e+00,2.456128294006382884e+00
4.209521532058715820e+00,2.434618167235632846e+00
4.211523532867431641e+00,2.487463651593166958e+00
4.213518381118774414e+00,2.496367990537642356e+00
4.215520620346069336e+00,2.504677475056347191e+00
4.217522859573364258e+00,2.511278094205628975e+00
4.219522476196289062e+00,2.489388285802398570e+00
4.221520900726318359e+00,2.438830427984050253e+00
4.223522663116455078e+00,2.495087682615242386e+00
4.225520372390747070e+00,2.505826056698090554e+00
4.227522373199462891e+00,2.515158953089589033e+00
4.229516506195068359e+00,2.522973718997683523e+00
4.231520414352416992e+00,2.527948323243656592e+00
4.233532905578613281e+00,2.537132208005453027e+00
4.235524177551269531e+00,2.544753258794934414e+00
4.237519979476928711e+00,2.553236788897131682e+00
4.239521741867065430e+00,2.559133477107701005e+00
4.241518735885620117e+00,2.565861650212007739e+00
4.243521213531494141e+00,2.572201200986051539e+00
4.245518445968627930e+00,2.577380249187975814e+00
4.247519969940185547e+00,2.583948085778723591e+00
4.249517679214477539e+00,2.589471648868518994e+00
4.251520395278930664e+00,2.593446087055931937e+00
4.253518104553222656e+00,2.598640036420826416e+00
4.255519866943359375e+00,2.602339101116549980e+00
4.257517337799072266e+00,2.606637788610194573e+00
4.259519815444946289e+00,2.611776305648840335e+00
4.261517047882080078e+00,2.615340663831313250e+00
4.263518571853637695e+00,2.617373778506967952e+00
4.265517234802246094e+00,2.620068504818499733e+00
4.267519235610961914e+00,2.622104599726748475e+00
4.269516468048095703e+00,2.624895289527808373e+00
4.271518230438232422e+00,2.628150299567019843e+00
4.273516654968261719e+00,2.627578094908963990e+00
4.275518417358398438e+00,2.632186130545870029e+00
4.277515411376953125e+00,2.633493260561616367e+00
4.279517412185668945e+00,2.634866551740950413e+00
4.281516075134277344e+00,2.636735753623932865e+00
4.283518075942993164e+00,2.637508825958827074e+00
4.285515308380126953e+00,2.638131694570981622e+00
4.287517070770263672e+00,2.639236168770333180e+00
4.289515972137451172e+00,2.639976458546692939e+00
4.291517257690429688e+00,2.641664462287958148e+00
4.293514251708984375e+00,2.548756903261769402e+00
4.295516729354858398e+00,2.532810274697574915e+00
4.297514438629150391e+00,2.546900218355681922e+00
4.299517393112182617e+00,2.571937152378219515e+00
4.301513910293579102e+00,2.577012488485871167e+00
4.303515911102294922e+00,2.580722282018933722e+00
4.305513620376586914e+00,2.584778378579423386e+00
4.307516098022460938e+00,2.588056038386349567e+00
4.309513330459594727e+00,2.591730665174801995e+00
4.311515331268310547e+00,2.596090149413365022e+00
4.313513040542602539e+00,2.598858785493229018e+00
4.315514564514160156e+00,2.599307608521891577e+00
4.317512989044189453e+00,2.601995778321716468e+00
4.319514513015747070e+00,2.604462814863063524e+00
4.321512460708618164e+00,2.607324434199861596e+00
4.323514938354492188e+00,2.609193636082844048e+00
4.325512647628784180e+00,2.612566067286261173e+00
4.327514171600341797e+00,2.614631368473931516e+00
4.329512357711791992e+00,2.615858628256157559e+00
4.331513881683349609e+00,2.617903067815669615e+00
4.333511829376220703e+00,2.619082643876391003e+00
4.335513114929199219e+00,2.619696571790763429e+00
4.337511062622070312e+00,2.621358945531719442e+00
4.339512586593627930e+00,2.621453120881691135e+00
4.341510534286499023e+00,2.623660281140837824e+00
4.343512535095214844e+00,2.624233081845412485e+00
4.345510482788085938e+00,2.625553920931091412e+00
4.347512483596801758e+00,2.625754192561410960e+00
4.349510669708251953e+00,2.624978139993922710e+00
4.351511955261230469e+00,2.625853136283533118e+00
4.353510379791259766e+00,2.625537231628564783e+00
4.355511426925659180e+00,2.627856448633247410e+00
4.357510805130004883e+00,2.625812605120254162e+00
4.359511613845825195e+00,2.538954918259968441e+00
4.361512184143066406e+00,2.577312299884831681e+00
4.363510131835937500e+00,2.586819241859822593e+00
4.365547895431518555e+00,2.589220117237581942e+00
4.367629289627075195e+00,2.570001789331649356e+00
4.369549036026000977e+00,2.572639891223894359e+00
4.371511459350585938e+00,2.570438691429935751e+00
4.373510599136352539e+00,2.539534871522768800e+00
4.375553846359252930e+00,2.565729923931351131e+00
4.377508163452148438e+00,2.565176196715378332e+00
4.379510402679443359e+00,2.448183589957188211e+00
4.381508350372314453e+00,2.487079201588535682e+00
4.383509397506713867e+00,2.508136929051509867e+00
4.385507583618164062e+00,2.514932455412441925e+00
4.387510061264038086e+00,2.508348525565686771e+00
4.389507532119750977e+00,2.523461285050068614e+00
4.391508817672729492e+00,2.530121508851231216e+00
4.393548965454101562e+00,2.534591857742292564e+00
4.395526885986328125e+00,2.484188375972315566e+00
4.397505760192871094e+00,2.512420715382184255e+00
4.399514913558959961e+00,2.519065441973858288e+00
4.401499271392822266e+00,2.518779935691349170e+00
4.403509616851806641e+00,2.521315517582359167e+00
4.405509233474731445e+00,2.516202630544022600e+00
4.407549619674682617e+00,2.493763267250450610e+00
4.409505844116210938e+00,2.507375181600473013e+00
4.411507368087768555e+00,2.523903551567024284e+00
4.413504362106323242e+00,2.529417577912518755e+00
4.415507316589355469e+00,2.534154359597487360e+00
4.417502403259277344e+00,2.538028065923221721e+00
4.419504165649414062e+00,2.543120687379918810e+00
4.421506166458129883e+00,2.548942273729118746e+00
4.423634767532348633e+00,2.553995556115574495e+00
4.425654411315917969e+00,2.544465368326350063e+00
4.427534103393554688e+00,2.549586600015950388e+00
4.429504156112670898e+00,2.559632964090462259e+00
4.431505680084228516e+00,2.563671179255387678e+00
4.433504104614257812e+00,2.567291565810628562e+00
4.435506343841552734e+00,2.571596213769461237e+00
4.437500953674316406e+00,2.574193784498427284e+00
4.439503431320190430e+00,2.578236768035503612e+00
4.441504240036010742e+00,2.579054543859308435e+00
4.443505048751831055e+00,2.583512375773474812e+00
4.445502758026123047e+00,2.583633373216792872e+00
4.447504281997680664e+00,2.579157659907062250e+00
4.449502229690551758e+00,2.585051963931556340e+00
4.451503992080688477e+00,2.586463402088094110e+00
4.453499794006347656e+00,2.589748810499764797e+00
4.455518484115600586e+00,2.587576816985227790e+00
4.457508802413940430e+00,2.582267830642203332e+00
4.459504604339599609e+00,2.589896033989910418e+00
4.461502075195312500e+00,2.592229556111044442e+00
4.463503122329711914e+00,2.591746162384291008e+00
4.465501546859741211e+00,2.593244623332574772e+00
4.467503070831298828e+00,2.580131003872276008e+00
4.469500541687011719e+00,2.590661357720060121e+00
4.471502780914306641e+00,2.592003654480416142e+00
4.473500013351440430e+00,2.593003820538976267e+00
4.475502252578735352e+00,2.593794774269434722e+00
4.477499961853027344e+00,2.595254492193995954e+00
4.479502201080322266e+00,2.595175814053513275e+00
4.481500148773193359e+00,2.595357012195230961e+00
4.483501672744750977e+00,2.594659637768225391e+00
4.485499382019042969e+00,2.595196079635152753e+00
4.487500429153442383e+00,2.592840503792822826e+00
4.489499330520629883e+00,2.584575126716509796e+00
4.491501331329345703e+00,2.589581917474498507e+00
4.493498563766479492e+00,2.587360452098900421e+00
4.495500564575195312e+00,2.589277933749906335e+00
4.497501134872436523e+00,2.588495920717230003e+00
4.499500274658203125e+00,2.588577579090306724e+00
4.501499176025390625e+00,2.588450621181800582e+00
4.503500223159790039e+00,2.587058852560383482e+00
4.505496978759765625e+00,2.586897920000305273e+00
4.507500171661376953e+00,2.587503503263414384e+00
4.509497642517089844e+00,2.567219444181852772e+00
4.511499881744384766e+00,2.579899737822978434e+00
4.513497114181518555e+00,2.578787515018882370e+00
4.515498638153076172e+00,2.578894207345749034e+00
4.517497062683105469e+00,2.576909372438117352e+00
4.519498825073242188e+00,2.576653668481548642e+00
4.521496295928955078e+00,2.576987454532081223e+00
4.523498535156250000e+00,2.574575850316983328e+00
4.525495767593383789e+00,2.575539061491377346e+00
4.527497291564941406e+00,2.575056859857661529e+00
4.529495716094970703e+00,2.569805093980442656e+00
4.531497716903686523e+00,2.558512396635102881e+00
4.533495664596557617e+00,2.563597865533574272e+00
4.535496950149536133e+00,2.562235899238097581e+00
4.537495374679565430e+00,2.562017150165694979e+00
4.539496660232543945e+00,2.561652965742703181e+00
4.541494607925415039e+00,2.561307258761794436e+00
4.543496370315551758e+00,2.558863468034680899e+00
4.545494318008422852e+00,2.559660978276846244e+00
4.547496080398559570e+00,2.558613128496781464e+00
4.549493789672851562e+00,2.556902474987801988e+00
4.551495313644409180e+00,2.539553945011370661e+00
4.553493499755859375e+00,2.550022906067717976e+00
4.555495500564575195e+00,2.550718492355167122e+00
4.557506561279296875e+00,2.550454443747335098e+00
4.559495449066162109e+00,2.546784585331032691e+00
4.561495780944824219e+00,2.547440832548240941e+00
4.563494443893432617e+00,2.546706503237068819e+00
4.565493106842041016e+00,2.547785943482630877e+00
4.567493677139282227e+00,2.546555703467810350e+00
4.569493055343627930e+00,2.545812433458856550e+00
4.571493387222290039e+00,2.543388312266863682e+00
4.573492765426635742e+00,2.543987935064784711e+00
4.575493812561035156e+00,2.545413082291255069e+00
4.577491760253906250e+00,2.545664017875673313e+00
4.579493522644042969e+00,2.545543616478874061e+00
4.581491231918334961e+00,2.545350497406780210e+00
4.583493232727050781e+00,2.544391458558017849e+00
4.585491418838500977e+00,2.544381325767198110e+00
4.587493181228637695e+00,2.544845646005349682e+00
4.589490890502929688e+00,2.545194333218852467e+00
4.591492652893066406e+00,2.546404903698551880e+00
4.593490123748779297e+00,2.545850580436060273e+00
4.595492362976074219e+00,2.545895879971489695e+00
4.597489833831787109e+00,2.545520370664640541e+00
4.599491596221923828e+00,2.546385234163431210e+00
4.601492166519165039e+00,2.545855944854729547e+00
4.603491544723510742e+00,2.545250957638139244e+00
4.605490207672119141e+00,2.547071283706579869e+00
4.607491016387939453e+00,2.545293872987493433e+00
4.609489440917968750e+00,2.546305363929910914e+00
4.611491203308105469e+00,2.547318643011885264e+00
4.613488435745239258e+00,2.547042673473677077e+00
4.615489244461059570e+00,2.546858495099364905e+00
4.617489814758300781e+00,2.543524806919670755e+00
4.619491100311279297e+00,2.545623486712394357e+00
4.621489286422729492e+00,2.546199863696081866e+00
4.623497009277343750e+00,2.545762961597795471e+00
4.625491380691528320e+00,2.538326685229144619e+00
4.627491235733032227e+00,2.544240658788759379e+00
4.629488468170166016e+00,2.544766967864867002e+00
4.631488800048828125e+00,2.545702164852877036e+00
4.633486986160278320e+00,2.544714515771211882e+00
4.635488986968994141e+00,2.545741503923118376e+00
4.637486219406127930e+00,2.546369736953942198e+00
4.639488697052001953e+00,2.547396129059330327e+00
4.641486644744873047e+00,2.547554677433333303e+00
4.643487930297851562e+00,2.547763889761434974e+00
4.645486354827880859e+00,2.547003930449954545e+00
4.647487878799438477e+00,2.547890251623422309e+00
4.649485826492309570e+00,2.549084728847113901e+00
4.651487827301025391e+00,2.548767632099107949e+00
4.653485536575317383e+00,2.549026912334789507e+00
4.655487298965454102e+00,2.551166719337310873e+00
4.657484769821166992e+00,2.551309174455306028e+00
4.659487009048461914e+00,2.553230828431943600e+00
4.661484718322753906e+00,2.552546567028351809e+00
4.663486242294311523e+00,2.552395767259093340e+00
4.665485382080078125e+00,2.553100890290843417e+00
4.667486190795898438e+00,2.552560872144803206e+00
4.669484615325927734e+00,2.552353447956257959e+00
4.671486377716064453e+00,2.553241557269282147e+00
4.673484325408935547e+00,2.553137845175009524e+00
4.675485849380493164e+00,2.554307288444911173e+00
4.677483558654785156e+00,2.554300135886685474e+00
4.679485082626342773e+00,2.554113573326298514e+00
4.681483268737792969e+00,2.553167051454431125e+00
4.683484554290771484e+00,2.553654021460297407e+00
4.685483694076538086e+00,2.553457922155609516e+00
4.687485218048095703e+00,2.553682035646681392e+00
4.689482927322387695e+00,2.554188079141149537e+00
4.691485166549682617e+00,2.554003900766837809e+00
4.693482160568237305e+00,2.551415270735653884e+00
4.695484638214111328e+00,2.553664154251117147e+00
4.697482109069824219e+00,2.553760713787164072e+00
4.699482917785644531e+00,2.554490870772704092e+00
4.701480865478515625e+00,2.553243941455357380e+00
4.703483581542968750e+00,2.553558654017288099e+00
4.705705642700195312e+00,2.553880519137444516e+00
4.708485126495361328e+00,2.518474759873719382e+00
4.710481643676757812e+00,2.533053461677248652e+00
4.712483406066894531e+00,2.535137836353520857e+00
4.714482307434082031e+00,2.535900179851076519e+00
4.716483354568481445e+00,2.535357181472442267e+00
4.718477249145507812e+00,2.536612455441052294e+00
4.720632791519165039e+00,2.537894551503008689e+00
4.722515106201171875e+00,2.537098233353880961e+00
4.724482297897338867e+00,2.538076345691245184e+00
4.726480007171630859e+00,2.541236584333966153e+00
4.728481531143188477e+00,2.542189066671021624e+00
4.730479478836059570e+00,2.542165224810269297e+00
4.732481718063354492e+00,2.543579047152882300e+00
4.734476566314697266e+00,2.544544642513351551e+00
4.736479043960571289e+00,2.545169895311581332e+00
4.738479614257812500e+00,2.546509807885862120e+00
4.740479946136474609e+00,2.547391956733698670e+00
4.742533922195434570e+00,2.548204964185353028e+00
4.744484424591064453e+00,2.547985023019912809e+00
4.746477127075195312e+00,2.548469012793185051e+00
4.748478889465332031e+00,2.545654481131372382e+00
4.750473976135253906e+00,2.549321359315080748e+00
4.752477169036865234e+00,2.549372023269179444e+00
4.754477977752685547e+00,2.549507921875467709e+00
4.756481409072875977e+00,2.550504511654914985e+00
4.758477210998535156e+00,2.545663421829154505e+00
4.760477542877197266e+00,2.551206654454071021e+00
4.762477159500122070e+00,2.549758857459885952e+00
4.764476537704467773e+00,2.548730081168423034e+00
4.766476154327392578e+00,2.549770182343743308e+00
4.768476724624633789e+00,2.550562328167239379e+00
4.770475625991821289e+00,2.549361890478359705e+00
4.772475957870483398e+00,2.551330632129983123e+00
4.774476289749145508e+00,2.550693458401377178e+00
4.776477098464965820e+00,2.551912969578858714e+00
4.778474807739257812e+00,2.552014893533574913e+00
4.780476808547973633e+00,2.550940221660163765e+00
4.782474279403686523e+00,2.551369971200224462e+00
4.784478902816772461e+00,2.549429243734985029e+00
4.786473751068115234e+00,2.550837105612409950e+00
4.788475513458251953e+00,2.551830119112744377e+00
4.790473461151123047e+00,2.551921314230122029e+00
4.792475461959838867e+00,2.552685445867234115e+00
4.794473409652709961e+00,2.552261060745842691e+00
4.796474695205688477e+00,2.551278776082846811e+00
4.798472642898559570e+00,2.551367587014149230e+00
4.800474643707275391e+00,2.551009363056345514e+00
4.802473068237304688e+00,2.550453251654297482e+00
4.804474592208862305e+00,2.550396627235010705e+00
4.806472778320312500e+00,2.551143473523077354e+00
4.808473825454711914e+00,2.551662033994440471e+00
4.810471296310424805e+00,2.552556699819171548e+00
4.812473058700561523e+00,2.551600045156484420e+00
4.814473628997802734e+00,2.551643556552357417e+00
4.816791772842407227e+00,2.520860138041989718e+00
4.819475650787353516e+00,2.510423363497658045e+00
4.821471929550170898e+00,2.516755165666957783e+00
4.823545217514038086e+00,2.523285451327020201e+00
4.825474023818969727e+00,2.523715200867080899e+00
4.827473640441894531e+00,2.525664869030102455e+00
4.829470396041870117e+00,2.526887956486696840e+00
4.831472635269165039e+00,2.528634968833323615e+00
4.833469867706298828e+00,2.529654208380485603e+00
4.835472345352172852e+00,2.531048361187977935e+00
4.837466478347778320e+00,2.531827393988060226e+00
4.839469194412231445e+00,2.534122769131990527e+00
4.841470718383789062e+00,2.535454337055008001e+00
4.843472719192504883e+00,2.537496988474963633e+00
4.845469474792480469e+00,2.537868921502699937e+00
4.847470521926879883e+00,2.537709777082178153e+00
4.849470138549804688e+00,2.540012304784334152e+00
4.851470708847045898e+00,2.541201417589356470e+00
4.853465318679809570e+00,2.542540734117118451e+00
4.855468750000000000e+00,2.544359272046002207e+00
4.857468843460083008e+00,2.541498844802241752e+00
4.859527349472045898e+00,2.546459143931763425e+00
4.861519813537597656e+00,2.540496890604125202e+00
4.863508701324462891e+00,2.532045547013944020e+00
4.865510940551757812e+00,2.529796663498480758e+00
4.867483854293823242e+00,2.502602637124375917e+00
4.869466304779052734e+00,2.515545191233776734e+00
4.871469974517822266e+00,2.516550721711006577e+00
4.873468160629272461e+00,2.516001762867184244e+00
4.875468969345092773e+00,2.516455950314516077e+00
4.877467393875122070e+00,2.516358794731950344e+00
4.879468441009521484e+00,2.516288461242730978e+00
4.881466865539550781e+00,2.516042890076982008e+00
4.883468627929687500e+00,2.516212763334842339e+00
4.885466098785400391e+00,2.515056433088354026e+00
4.887469053268432617e+00,2.516296209847475485e+00
4.889466047286987305e+00,2.516649665433128735e+00
4.891467571258544922e+00,2.516834439853959271e+00
4.893465280532836914e+00,2.518661322434106342e+00
4.895469427108764648e+00,2.518149914520968924e+00
4.897464513778686523e+00,2.518678607783151779e+00
4.899467229843139648e+00,2.518735232202438556e+00
4.901464700698852539e+00,2.518294753825039312e+00
4.903466463088989258e+00,2.519051732903925700e+00
4.905462265014648438e+00,2.519266905697215453e+00
4.907469272613525391e+00,2.520592513155044845e+00
4.909468650817871094e+00,2.521028819206812432e+00
4.911467075347900391e+00,2.522166672011217248e+00
4.913464307785034180e+00,2.522889676438531570e+00
4.915466547012329102e+00,2.523036899928677190e+00
4.917464017868041992e+00,2.524334493200122598e+00
4.919466018676757812e+00,2.525515261353881602e+00
4.921463012695312500e+00,2.527009549976533709e+00
4.923465013504028320e+00,2.527938786499355661e+00
4.925462961196899414e+00,2.527241412072350091e+00
4.927464723587036133e+00,2.530360523505273296e+00
4.929462909698486328e+00,2.529812756754488579e+00
4.931464910507202148e+00,2.530630532578293401e+00
4.933463096618652344e+00,2.532064024456027074e+00
4.935464620590209961e+00,2.531141344444912011e+00
4.937462091445922852e+00,2.534225289133225534e+00
4.939464092254638672e+00,2.534905378211185667e+00
4.941462278366088867e+00,2.535577718684401294e+00
4.943464517593383789e+00,2.536757890791641490e+00
4.945498228073120117e+00,2.535716597523283600e+00
4.947485446929931641e+00,2.516366543336694850e+00
4.949467658996582031e+00,2.511138619320227860e+00
4.951466560363769531e+00,2.527354064864404837e+00
4.953461647033691406e+00,2.538149659413058590e+00
4.955461740493774414e+00,2.542004888296709897e+00
4.957466602325439453e+00,2.545940583460400308e+00
4.959462165832519531e+00,2.548460668141921737e+00
4.961460113525390625e+00,2.552807635403589792e+00
4.963461399078369141e+00,2.555339044968968132e+00
4.965460777282714844e+00,2.556853003126740909e+00
4.967460632324218750e+00,2.560921020617606736e+00
4.969460487365722656e+00,2.562960095758449519e+00
4.971460103988647461e+00,2.566838570456334345e+00
4.973460674285888672e+00,2.568937250249057946e+00
4.975461244583129883e+00,2.572642275409969592e+00
4.977458953857421875e+00,2.572792479132709254e+00
4.979461193084716797e+00,2.574457237059740500e+00
4.981751441955566406e+00,2.576455184990785519e+00
4.983632326126098633e+00,2.576568433829359073e+00
4.985509395599365234e+00,2.564614124848142218e+00
4.987462282180786133e+00,2.554013437511138740e+00
4.989458084106445312e+00,2.556148476141509640e+00
4.991459608078002930e+00,2.568243452101165225e+00
4.993462324142456055e+00,2.569870659097511556e+00
4.995460033416748047e+00,2.572399684476814663e+00
4.997453927993774414e+00,2.573257395417379634e+00
4.999458074569702148e+00,2.574026295426642186e+00
5.001457929611206055e+00,2.574620553805893941e+00
5.003458261489868164e+00,2.576656648714142683e+00
5.005456447601318359e+00,2.577576348492663705e+00
5.007458448410034180e+00,2.579332897583591855e+00
5.009456157684326172e+00,2.580181071779855895e+00
5.011457681655883789e+00,2.581363032026652515e+00
5.013454198837280273e+00,2.581102559697933341e+00
5.015455245971679688e+00,2.581450054818398510e+00
5.017461299896240234e+00,2.580836126904026084e+00
5.019457578659057617e+00,2.581801722264495336e+00
5.021455526351928711e+00,2.582792947625273339e+00
5.023457288742065430e+00,2.579835960845465959e+00
5.025454282760620117e+00,2.581199715280499074e+00
5.027456521987915039e+00,2.583329389492200701e+00
5.029454231262207031e+00,2.582227895525443184e+00
5.031456470489501953e+00,2.579864571078368751e+00
5.033453702926635742e+00,2.581728408542681930e+00
5.035456418991088867e+00,2.580955932254306529e+00
5.037454366683959961e+00,2.581519196214580258e+00
5.039455652236938477e+00,2.581469128307000371e+00
5.041454315185546875e+00,2.582159946222299052e+00
5.043456554412841797e+00,2.581902454126173918e+00
5.045453071594238281e+00,2.580956528300825337e+00
5.047454357147216797e+00,2.580884406672049547e+00
5.049452304840087891e+00,2.579440185956977327e+00
5.051454782485961914e+00,2.578859040601139352e+00
5.053452491760253906e+00,2.578292796408271581e+00
5.055454492568969727e+00,2.578791687344514028e+00
5.057451963424682617e+00,2.578478762922139733e+00
5.059454202651977539e+00,2.578470418270876419e+00
5.061451435089111328e+00,2.578603932691089451e+00
5.063454151153564453e+00,2.577686021052124410e+00
5.065451145172119141e+00,2.576574990341065963e+00
5.067452430725097656e+00,2.575987288473521097e+00
5.069452524185180664e+00,2.574972221251990767e+00
5.071452617645263672e+00,2.575382301256930795e+00
5.073450803756713867e+00,2.575726816144801923e+00
5.075451850891113281e+00,2.576527306619561308e+00
5.077451944351196289e+00,2.575508663118918129e+00
5.079452037811279297e+00,2.575004407764006409e+00
5.081450462341308594e+00,2.574929305902636578e+00
5.083452463150024414e+00,2.574183055661088737e+00
5.085449934005737305e+00,2.573588797281836982e+00
5.087452173233032227e+00,2.574568101712238821e+00
5.089449405670166016e+00,2.575426408699322600e+00
5.091451406478881836e+00,2.576263854058248093e+00
5.093449354171752930e+00,2.576627442434721083e+00
5.095450878143310547e+00,2.576827118018521823e+00
5.097448587417602539e+00,2.575750658005554250e+00
5.099450826644897461e+00,2.576567241736321456e+00
5.101449251174926758e+00,2.576101133358613460e+00
5.103449583053588867e+00,2.577738473145779530e+00
5.105448722839355469e+00,2.577145406859565391e+00
5.107450008392333984e+00,2.578489491759478280e+00
5.109447717666625977e+00,2.579418132235781425e+00
5.111448764801025391e+00,2.579785296891367263e+00
5.113447427749633789e+00,2.579945633404926664e+00
5.115449190139770508e+00,2.580587575505683073e+00
5.117446899414062500e+00,2.579641053633815684e+00
5.119453191757202148e+00,2.580456445271545274e+00
5.121447801589965820e+00,2.578720757808775854e+00
5.123448371887207031e+00,2.581296870863064807e+00
5.125447034835815430e+00,2.582478831109861428e+00
5.127448081970214844e+00,2.583487937866203676e+00
5.129446983337402344e+00,2.582743475764212260e+00
5.131448030471801758e+00,2.583356211585547069e+00
5.133445262908935547e+00,2.583629200891161215e+00
5.135447740554809570e+00,2.583708475078162703e+00
5.137445926666259766e+00,2.585290382539079612e+00
5.139447689056396484e+00,2.586152861851795048e+00
5.141445875167846680e+00,2.586480091390620739e+00
5.143445968627929688e+00,2.587347935122005449e+00
5.145445346832275391e+00,2.584495256482989500e+00
5.147446632385253906e+00,2.586200545573299703e+00
5.149444341659545898e+00,2.586720894184219244e+00
5.151447296142578125e+00,2.584601352763337356e+00
5.153444051742553711e+00,2.586524794879531353e+00
5.155446052551269531e+00,2.586958120698704899e+00
5.157444715499877930e+00,2.587734769312711958e+00
5.159444808959960938e+00,2.583972523685994727e+00
5.161444425582885742e+00,2.586370418831160034e+00
5.163444519042968750e+00,2.586474726971951466e+00
5.165444850921630859e+00,2.586063454873973821e+00
5.167443513870239258e+00,2.586217234875826332e+00
5.169444084167480469e+00,2.586202333712856127e+00
5.171443939208984375e+00,2.587055872327789441e+00
5.173443078994750977e+00,2.587619732334581979e+00
5.175444364547729492e+00,2.587868879779443798e+00
5.177441835403442383e+00,2.588197301411307105e+00
5.179443836212158203e+00,2.587389062331803213e+00
5.181442260742187500e+00,2.586396644877987594e+00
5.183444023132324219e+00,2.586419890692221113e+00
5.185440778732299805e+00,2.585470984634278491e+00
5.187443494796752930e+00,2.585042427187255409e+00
5.189441204071044922e+00,2.585199783468220769e+00
5.191444158554077148e+00,2.584800432300619288e+00
5.193440914154052734e+00,2.585397074865946276e+00
5.195442676544189453e+00,2.585371444865637525e+00
5.197439670562744141e+00,2.584978650209742934e+00
5.199442386627197266e+00,2.583752582520554508e+00
5.201440334320068359e+00,2.583093355070752661e+00
5.203444242477416992e+00,2.582501480877576139e+00
5.205439805984497070e+00,2.581864903195489003e+00
5.207441806793212891e+00,2.581531713191475230e+00
5.209440231323242188e+00,2.580547044342404117e+00
5.211441040039062500e+00,2.580885598765087163e+00
5.213439702987670898e+00,2.579580256888897249e+00
5.215440750122070312e+00,2.579887816892602270e+00
