time_s,voltage_v
1.970529556274414062e-03,2.542417948534243965e+00
3.943920135498046875e-03,2.533926073780783828e+00
5.967617034912109375e-03,2.534951869839652705e+00
7.985591888427734375e-03,2.525719705309832808e+00
9.953260421752929688e-03,2.505449355298203784e+00
1.193094253540039062e-02,2.516193093799721670e+00
1.394605636596679688e-02,2.521237435488395295e+00
1.598763465881347656e-02,2.516883315668501542e+00
1.795482635498046875e-02,2.505256236226109934e+00
1.992464065551757812e-02,2.509641350464981713e+00
2.192974090576171875e-02,2.511674465140636414e+00
2.392864227294921875e-02,2.512526811662532111e+00
2.592897415161132812e-02,2.513780297491585713e+00
2.796769142150878906e-02,2.513928117028250142e+00
2.997422218322753906e-02,2.497231661943395409e+00
3.198218345642089844e-02,2.498939931266299652e+00
3.397822380065917969e-02,2.485473452266866445e+00
3.597712516784667969e-02,2.487245498567283164e+00
3.797006607055664062e-02,2.479719219174291833e+00
4.019260406494140625e-02,2.481242118029846733e+00
4.305100440979003906e-02,2.446154051560646359e+00
4.502129554748535156e-02,2.441782050345188360e+00
4.691457748413085938e-02,2.444994741081564449e+00
4.889822006225585938e-02,2.447462373669430313e+00
5.092000961303710938e-02,2.434564523048940110e+00
5.291533470153808594e-02,2.434558562583752028e+00
5.493640899658203125e-02,2.427847078781971923e+00
5.685901641845703125e-02,2.436822347262185495e+00
5.887937545776367188e-02,2.451750928372255167e+00
6.085181236267089844e-02,2.451013022781970641e+00
6.286525726318359375e-02,2.456608707500542277e+00
6.488156318664550781e-02,2.460094387542532512e+00
6.690406799316406250e-02,2.439606480551538503e+00
6.885504722595214844e-02,2.445299916899194237e+00
7.086706161499023438e-02,2.462473209199095958e+00
7.285094261169433594e-02,2.464931305042660892e+00
7.485961914062500000e-02,2.470541294877683480e+00
7.685017585754394531e-02,2.473608550263470374e+00
7.886028289794921875e-02,2.478386459158236743e+00
8.084964752197265625e-02,2.481627164080996817e+00
8.286070823669433594e-02,2.486514745535224336e+00
8.484864234924316406e-02,2.489937840692739712e+00
8.686017990112304688e-02,2.493453323060670357e+00
8.884882926940917969e-02,2.497301399386095966e+00
9.086012840270996094e-02,2.500271499189317126e+00
9.284877777099609375e-02,2.504715622033550915e+00
9.486651420593261719e-02,2.508333028356197758e+00
9.689664840698242188e-02,2.504075468072350930e+00
9.903287887573242188e-02,2.475652989822982430e+00
1.010167598724365234e-01,2.462736661760409174e+00
1.029872894287109375e-01,2.455950672143778046e+00
1.049468517303466797e-01,2.449178987643597871e+00
1.068904399871826172e-01,2.440168552418774617e+00
1.088488101959228516e-01,2.481026945236556980e+00
1.108605861663818359e-01,2.486015258552463081e+00
1.128470897674560547e-01,2.483413515497864932e+00
1.148588657379150391e-01,2.489033638123707703e+00
1.168470382690429688e-01,2.493814527251068114e+00
1.188554763793945312e-01,2.499711215461637437e+00
1.208467483520507812e-01,2.503903210628415366e+00
1.228544712066650391e-01,2.509465516741933300e+00
1.248452663421630859e-01,2.513169349809807329e+00
1.268544197082519531e-01,2.517994942426078797e+00
1.288459300994873047e-01,2.521733346192043701e+00
1.308574676513671875e-01,2.524843516927184783e+00
1.328451633453369141e-01,2.524796429252198937e+00
1.348555088043212891e-01,2.522930803648329334e+00
1.368455886840820312e-01,2.527530494633972058e+00
1.388556957244873047e-01,2.532527748647659838e+00
1.408457756042480469e-01,2.535095517050685476e+00
1.428554058074951172e-01,2.539037172679563970e+00
1.448450088500976562e-01,2.541836803178405990e+00
1.468539237976074219e-01,2.545650904852259533e+00
1.488432884216308594e-01,2.548037475113567929e+00
1.508538722991943359e-01,2.550847834449748497e+00
1.528429985046386719e-01,2.552810615636183833e+00
1.548552513122558594e-01,2.551209634686665062e+00
1.568439006805419922e-01,2.547722166505118402e+00
1.588523387908935547e-01,2.552225894001233009e+00
1.608438491821289062e-01,2.554366297050273182e+00
1.628527641296386719e-01,2.556982345221322284e+00
1.648435592651367188e-01,2.558912939895741978e+00
1.668536663055419922e-01,2.561651177603146756e+00
1.688451766967773438e-01,2.563149638551430520e+00
1.711566448211669922e-01,2.564156957168216344e+00
1.738595962524414062e-01,2.521217169906755817e+00
1.758456230163574219e-01,2.535255257517726069e+00
1.787743568420410156e-01,2.493338882129059186e+00
1.808590888977050781e-01,2.501678765020223238e+00
1.835231781005859375e-01,2.527545991843461071e+00
1.854758262634277344e-01,2.489974795576905819e+00
1.878533363342285156e-01,2.495588957737560065e+00
1.898424625396728516e-01,2.517926993122934665e+00
1.918408870697021484e-01,2.521544399445581508e+00
1.938405036926269531e-01,2.525766792984818654e+00
1.958405971527099609e-01,2.524853053671485714e+00
1.978402137756347656e-01,2.524885240183501356e+00
1.998400688171386719e-01,2.528942528837028636e+00
2.018415927886962891e-01,2.532710138882415141e+00
2.038388252258300781e-01,2.536753122419491024e+00
2.058398723602294922e-01,2.539545004313588539e+00
2.078387737274169922e-01,2.542639081792721800e+00
2.098400592803955078e-01,2.545305197871350789e+00
2.118375301361083984e-01,2.546954458588893466e+00
2.138400077819824219e-01,2.548564380236194360e+00
2.158377170562744141e-01,2.551341360967321670e+00
2.178387641906738281e-01,2.544388478325423808e+00
2.198371887207031250e-01,2.550466364677711262e+00
2.218382358551025391e-01,2.553028768662067627e+00
2.238354682922363281e-01,2.553108638895587923e+00
2.258377075195312500e-01,2.556946582430193793e+00
2.278385162353515625e-01,2.557880587325166211e+00
2.298395633697509766e-01,2.559815354325217562e+00
2.318363189697265625e-01,2.561128444806151983e+00
2.338378429412841797e-01,2.562431402496266664e+00
2.358362674713134766e-01,2.563271828087786197e+00
2.378373146057128906e-01,2.560968108292592582e+00
2.398355007171630859e-01,2.558835453848296915e+00
2.418367862701416016e-01,2.561519451322490148e+00
2.438352108001708984e-01,2.562554188079141149e+00
2.458372116088867188e-01,2.564441867404206654e+00
2.478361129760742188e-01,2.563792772745224546e+00
2.498366832733154297e-01,2.565342493694125814e+00
2.518355846405029297e-01,2.564564652987081139e+00
2.538356781005859375e-01,2.564891286479388022e+00
2.558338642120361328e-01,2.566632338360826715e+00
2.578420639038085938e-01,2.566843338828484811e+00
2.598357200622558594e-01,2.552340930979362987e+00
2.618348598480224609e-01,2.559727735486952760e+00
2.638344764709472656e-01,2.560327954331392597e+00
2.658352851867675781e-01,2.561549253648430557e+00
2.678346633911132812e-01,2.558895058500177733e+00
2.698357105255126953e-01,2.560152716654862992e+00
2.718346118927001953e-01,2.553912705649460158e+00
2.738351821899414062e-01,2.558565444775276809e+00
2.758324146270751953e-01,2.559055991060255941e+00
2.778344154357910156e-01,2.558276958260173650e+00
2.798321247100830078e-01,2.554211324955383056e+00
2.818338871002197266e-01,2.549830383042142934e+00
2.838320732116699219e-01,2.553415602852774136e+00
2.858335971832275391e-01,2.552770680519423685e+00
2.878324985504150391e-01,2.551957673067769328e+00
2.898333072662353516e-01,2.552906579125711950e+00
2.918319702148437500e-01,2.551558917946686655e+00
2.938330173492431641e-01,2.551967805858589067e+00
2.958316802978515625e-01,2.552063769348117184e+00
2.978327274322509766e-01,2.551975554463333573e+00
2.998306751251220703e-01,2.551706737483351084e+00
3.018324375152587891e-01,2.538908426631501403e+00
3.038308620452880859e-01,2.546338146488445364e+00
3.058311939239501953e-01,2.546006148577469208e+00
3.078303337097167969e-01,2.545481627640918010e+00
3.098316192626953125e-01,2.546269005092263615e+00
3.118305206298828125e-01,2.544804518795551918e+00
3.138315677642822266e-01,2.544498746931403321e+00
3.158318996429443359e-01,2.542795245980649543e+00
3.178310394287109375e-01,2.543144529240671137e+00
3.198289871215820312e-01,2.542606299234187350e+00
3.218307495117187500e-01,2.538962666864712947e+00
3.238613605499267578e-01,2.536610667301495869e+00
3.258523941040039062e-01,2.504417002727628017e+00
3.278355598449707031e-01,2.488928137889878656e+00
3.298466205596923828e-01,2.479070720561828534e+00
3.318951129913330078e-01,2.469260986955283510e+00
3.338720798492431641e-01,2.476040420060207747e+00
3.359019756317138672e-01,2.496290504490197293e+00
3.378939628601074219e-01,2.469168599744868242e+00
3.398702144622802734e-01,2.467444237165956178e+00
3.418278694152832031e-01,2.504138649003344597e+00
3.438277244567871094e-01,2.509600223255183948e+00
3.458275794982910156e-01,2.513761224002983852e+00
3.478486537933349609e-01,2.520594897341120078e+00
3.498337268829345703e-01,2.505644262509854059e+00
3.518259525299072266e-01,2.525756064147480107e+00
3.538272380828857422e-01,2.535227243331342084e+00
3.558244705200195312e-01,2.536903922188749494e+00
3.578262329101562500e-01,2.545607393456386536e+00
3.598237037658691406e-01,2.547962373252198098e+00
3.618276119232177734e-01,2.555830187300466072e+00
3.638269901275634766e-01,2.558864660127718516e+00
3.658266067504882812e-01,2.564614124848142218e+00
3.678288459777832031e-01,2.567295142089741411e+00
3.698263168334960938e-01,2.572611280990991567e+00
3.718256950378417969e-01,2.573685356817883907e+00
3.738265037536621094e-01,2.578931758276433950e+00
3.758263587951660156e-01,2.579530188981317362e+00
3.778276443481445312e-01,2.584671686252556722e+00
3.798241615295410156e-01,2.584045837407808133e+00
3.818266391754150391e-01,2.588150809782840067e+00
3.838238716125488281e-01,2.591060708887661601e+00
3.858246803283691406e-01,2.592991899608600104e+00
3.878240585327148438e-01,2.593489598451804934e+00
3.898243904113769531e-01,2.595066141494052570e+00
3.918216228485107422e-01,2.594754409164715891e+00
3.938238620758056641e-01,2.598260354788345605e+00
3.958241939544677734e-01,2.597765636177734816e+00
3.978250026702880859e-01,2.599630069688566802e+00
3.998229503631591797e-01,2.599878025040391005e+00
4.018242359161376953e-01,2.600168299695050589e+00
4.038219451904296875e-01,2.600921702494824128e+00
4.058234691619873047e-01,2.600865078075537351e+00
4.078221321105957031e-01,2.600705933655015567e+00
4.098219871520996094e-01,2.599872064575202923e+00
4.118220806121826172e-01,2.598605465722735541e+00
4.138226509094238281e-01,2.599315357126636084e+00
4.158298969268798828e-01,2.598313402928519533e+00
4.178264141082763672e-01,2.594264458926255568e+00
4.198224544525146484e-01,2.595330190101884593e+00
4.218225479125976562e-01,2.594770502420723712e+00
4.238212108612060547e-01,2.594723414745737866e+00
4.258217811584472656e-01,2.593021701934540513e+00
4.278273582458496094e-01,2.592298697507226191e+00
4.298222064971923828e-01,2.587037990932225195e+00
4.318206310272216797e-01,2.586573670694073623e+00
4.338214397430419922e-01,2.586127231851486297e+00
4.358174800872802734e-01,2.585247467189725423e+00
4.380333423614501953e-01,2.584112594617914649e+00
4.401209354400634766e-01,2.543334668080170946e+00
4.428310394287109375e-01,2.542016809227086060e+00
4.448223114013671875e-01,2.555554217762257885e+00
4.468207359313964844e-01,2.556329674283227327e+00
4.488198757171630859e-01,2.555082744965880615e+00
4.508209228515625000e-01,2.555349177759787871e+00
4.528198242187500000e-01,2.553628391459988656e+00
4.548194408416748047e-01,2.554136223094013225e+00
4.568254947662353516e-01,2.553106850756031498e+00
4.588196277618408203e-01,2.550992077707300076e+00
4.608187675476074219e-01,2.549075788149331778e+00
4.628190994262695312e-01,2.549100226056602914e+00
4.648187160491943359e-01,2.546909159053464045e+00
4.668190479278564453e-01,2.546849554401582783e+00
4.688177108764648438e-01,2.545127576008745951e+00
4.708180427551269531e-01,2.545647328573146684e+00
4.728178977966308594e-01,2.544033234600214133e+00
4.748175144195556641e-01,2.544350331348220084e+00
4.768176078796386719e-01,2.544076745996087130e+00
4.788177013397216797e-01,2.543114130868211920e+00
4.808173179626464844e-01,2.543241088776718062e+00
4.828178882598876953e-01,2.542635505513608951e+00
4.848167896270751953e-01,2.542351191324137449e+00
4.868166446685791016e-01,2.541952436203054777e+00
4.888174533843994141e-01,2.541454141313331139e+00
4.908158779144287109e-01,2.541697328293004876e+00
4.928157329559326172e-01,2.539251749426334914e+00
4.948160648345947266e-01,2.540583317349352388e+00
4.968159198760986328e-01,2.539928858271701007e+00
4.988157749176025391e-01,2.539320890822516663e+00
5.008151531219482422e-01,2.539345328729787798e+00
5.028157234191894531e-01,2.538180057785517807e+00
5.048148632049560547e-01,2.537868921502699937e+00
5.068154335021972656e-01,2.538713519419851128e+00
5.088150501251220703e-01,2.537983362434311108e+00
5.108151435852050781e-01,2.538190190576337546e+00
5.128145217895507812e-01,2.536297146832602767e+00
5.148143768310546875e-01,2.537316386379764754e+00
5.168144702911376953e-01,2.537305657542426207e+00
5.188143253326416016e-01,2.535782758686871308e+00
5.208139419555664062e-01,2.537268702658260100e+00
5.228137969970703125e-01,2.536656562883444099e+00
5.248143672943115234e-01,2.536630336836616539e+00
5.268142223358154297e-01,2.536480729160395686e+00
5.288131237030029297e-01,2.537254397541808704e+00
5.308139324188232422e-01,2.537091676842174071e+00
5.328130722045898438e-01,2.535232607750011358e+00
5.348126888275146484e-01,2.535878722176399425e+00
5.368123054504394531e-01,2.535220090773116386e+00
5.388121604919433594e-01,2.535844747524827358e+00
5.408127307891845703e-01,2.535280887518034820e+00
5.428123474121093750e-01,2.535460297520196082e+00
5.448126792907714844e-01,2.536033098224770743e+00
5.468125343322753906e-01,2.533554140753047523e+00
5.488119125366210938e-01,2.535203401470589757e+00
5.508122444152832031e-01,2.535267178448102232e+00
5.528116226196289062e-01,2.534541789834712677e+00
5.548112392425537109e-01,2.535963360782070186e+00
5.568108558654785156e-01,2.534314696111046761e+00
5.588109493255615234e-01,2.535212342168371880e+00
5.608105659484863281e-01,2.535048429375699630e+00
5.628104209899902344e-01,2.535723750081509298e+00
5.648109912872314453e-01,2.535705868685945052e+00
5.668106079101562500e-01,2.535021607282353262e+00
5.688109397888183594e-01,2.535958592409919721e+00
5.708103179931640625e-01,2.534829084256778220e+00
5.728094577789306641e-01,2.535017434956721605e+00
5.748102664947509766e-01,2.536095683109245602e+00
5.768094062805175781e-01,2.536141578691193832e+00
5.788094997406005859e-01,2.536852662188131990e+00
5.808086395263671875e-01,2.536753718466009833e+00
5.828089714050292969e-01,2.535827462175781921e+00
5.848088264465332031e-01,2.536335889856325299e+00
5.868086814880371094e-01,2.536384169624348761e+00
5.888085365295410156e-01,2.536815707303965883e+00
5.908086299896240234e-01,2.536636297301804621e+00
5.928082466125488281e-01,2.536132041946892901e+00
5.948083400726318359e-01,2.536242906599391222e+00
5.968081951141357422e-01,2.536827628234342047e+00
5.988078117370605469e-01,2.537138764517159917e+00
6.008076667785644531e-01,2.537092272888692879e+00
6.028079986572265625e-01,2.536881272421034783e+00
6.048069000244140625e-01,2.536764447303348380e+00
6.068074703216552734e-01,2.536851470095094374e+00
6.088070869445800781e-01,2.537840907316315953e+00
6.108071804046630859e-01,2.536993925213089529e+00
6.128067970275878906e-01,2.536586229394224734e+00
6.148071289062500000e-01,2.537061278469714853e+00
6.168067455291748047e-01,2.537255589634846320e+00
6.188063621520996094e-01,2.537436191730045199e+00
6.208062171936035156e-01,2.536034290317808360e+00
6.228055953979492188e-01,2.537430231264857117e+00
6.248056888580322266e-01,2.536877100095403126e+00
6.268050670623779297e-01,2.537529174986979275e+00
6.288049221038818359e-01,2.537727658477742398e+00
6.308050155639648438e-01,2.538236682204804584e+00
6.328055858612060547e-01,2.536748354047340559e+00
6.348044872283935547e-01,2.537675206384087279e+00
6.368048191070556641e-01,2.537614409639168844e+00
6.388053894042968750e-01,2.538609211279059696e+00
6.408047676086425781e-01,2.537518446149640727e+00
6.428041458129882812e-01,2.537977401969123026e+00
6.448035240173339844e-01,2.537705604756546496e+00
6.468024253845214844e-01,2.538047735458342391e+00
6.488008499145507812e-01,2.537947599643182617e+00
6.508059501647949219e-01,2.537745539873306644e+00
6.528034210205078125e-01,2.536706630791023986e+00
6.548030376434326172e-01,2.537780110571397518e+00
6.568026542663574219e-01,2.537655536848966609e+00
6.588051319122314453e-01,2.538314168252249647e+00
6.608021259307861328e-01,2.537876074060925635e+00
6.628093719482421875e-01,2.538662855465752433e+00
6.648020744323730469e-01,2.538199727320638477e+00
6.668021678924560547e-01,2.538301651275354676e+00
6.688015460968017578e-01,2.537734811035968097e+00
6.708016395568847656e-01,2.538198535227600861e+00
6.728010177612304688e-01,2.538218800809240339e+00
6.748020648956298828e-01,2.538010184527657476e+00
6.768012046813964844e-01,2.538646762209744612e+00
6.788015365600585938e-01,2.538520400347757278e+00
6.808009147644042969e-01,2.538553778952810536e+00
6.828014850616455078e-01,2.538422052672153928e+00
6.848001480102539062e-01,2.538795177792927849e+00
6.868009567260742188e-01,2.538961474771675331e+00
6.888003349304199219e-01,2.537552420801212794e+00
6.908080577850341797e-01,2.537617985918281693e+00
6.927998065948486328e-01,2.536967699166261969e+00
6.947999000549316406e-01,2.538012568713732708e+00
6.967999935150146484e-01,2.537535731498686165e+00
6.987998485565185547e-01,2.537467186149023224e+00
7.007989883422851562e-01,2.538211648251014640e+00
7.027990818023681641e-01,2.538434569649048900e+00
7.047986984252929688e-01,2.537715141500847427e+00
7.067990303039550781e-01,2.538224761274428420e+00
7.087979316711425781e-01,2.538711135233775895e+00
7.107985019683837891e-01,2.538457219416763611e+00
7.127985954284667969e-01,2.537369434519938682e+00
7.147986888885498047e-01,2.539133136169092086e+00
7.167980670928955078e-01,2.538606231046465656e+00
7.187995910644531250e-01,2.538841669421394887e+00
7.207973003387451172e-01,2.537097637307362152e+00
7.227976322174072266e-01,2.537511889637933837e+00
7.247972488403320312e-01,2.538318936624400113e+00
7.267975807189941406e-01,2.538045351272267158e+00
7.287967205047607422e-01,2.538185422204187081e+00
7.307968139648437500e-01,2.538259928019038103e+00
7.327973842620849609e-01,2.537425462892706651e+00
7.347960472106933594e-01,2.537831370572015022e+00
7.367956638336181641e-01,2.538366024299385959e+00
7.387957572937011719e-01,2.537991111039055614e+00
7.408049106597900391e-01,2.537908856619460085e+00
7.428016662597656250e-01,2.535786931012502965e+00
7.447965145111083984e-01,2.537467782195542032e+00
7.467966079711914062e-01,2.538043563132710734e+00
7.487964630126953125e-01,2.537940447084956919e+00
7.507960796356201172e-01,2.538272444995933075e+00
7.527956962585449219e-01,2.536896173584004988e+00
7.547950744628906250e-01,2.538054888016568089e+00
7.567954063415527344e-01,2.537926141968505522e+00
7.587954998016357422e-01,2.535888258920700356e+00
7.607948780059814453e-01,2.537440364055676856e+00
7.627954483032226562e-01,2.537842099409353569e+00
7.647950649261474609e-01,2.537558381266400875e+00
7.667946815490722656e-01,2.537052337771932731e+00
7.687959671020507812e-01,2.537599508476198640e+00
7.707946300506591797e-01,2.537479107079399387e+00
7.727937698364257812e-01,2.538240854530436241e+00
7.747933864593505859e-01,2.538460199649357651e+00
7.767934799194335938e-01,2.537694875919207949e+00
7.787935733795166016e-01,2.538286154065865663e+00
7.807931900024414062e-01,2.537390296148096969e+00
7.827939987182617188e-01,2.537915413131166975e+00
7.847933769226074219e-01,2.538014356853289133e+00
7.867929935455322266e-01,2.537805144525187462e+00
7.887923717498779297e-01,2.538450066858537912e+00
7.907929420471191406e-01,2.537888591037820607e+00
7.927920818328857422e-01,2.537667457779342772e+00
7.947921752929687500e-01,2.538077537784282800e+00
7.967915534973144531e-01,2.538349931043378138e+00
7.987918853759765625e-01,2.539233271984251861e+00
8.007910251617431641e-01,2.538371388718055233e+00
8.027913570404052734e-01,2.538948957794780359e+00
8.047921657562255859e-01,2.539106910122264527e+00
8.067913055419921875e-01,2.538342778485152440e+00
8.087911605834960938e-01,2.538532321278133441e+00
8.107912540435791016e-01,2.537870709642256362e+00
8.127903938293457031e-01,2.537694875919207949e+00
8.147902488708496094e-01,2.538762395234393399e+00
8.167893886566162109e-01,2.537565533824626574e+00
8.187892436981201172e-01,2.537918393363761016e+00
8.207898139953613281e-01,2.537170951029175558e+00
8.227901458740234375e-01,2.536620800092315609e+00
8.247892856597900391e-01,2.537662689407192307e+00
8.267891407012939453e-01,2.537529771033498083e+00
8.287885189056396484e-01,2.537638847546439980e+00
8.307888507843017578e-01,2.537288968239899578e+00
8.327891826629638672e-01,2.537339632193998273e+00
8.347887992858886719e-01,2.536396090554724925e+00
8.367881774902343750e-01,2.537107770098181891e+00
8.387880325317382812e-01,2.537374798938607956e+00
8.407881259918212891e-01,2.537865941270105896e+00
8.427882194519042969e-01,2.537592951964491750e+00
8.447875976562500000e-01,2.537937466852362878e+00
8.467881679534912109e-01,2.538363640113310726e+00
8.487870693206787109e-01,2.538373772904130465e+00
8.507869243621826172e-01,2.537460033590797526e+00
8.527872562408447266e-01,2.538265292437707377e+00
8.547871112823486328e-01,2.536839549164718211e+00
8.567864894866943359e-01,2.537180487773476489e+00
8.587887287139892578e-01,2.537091080795655262e+00
8.607850074768066406e-01,2.535593215893890306e+00
8.627862930297851562e-01,2.536548678463539819e+00
8.647863864898681641e-01,2.535754148453968515e+00
8.667864799499511719e-01,2.536506955207223246e+00
8.687858581542968750e-01,2.536238138227240757e+00
8.707857131958007812e-01,2.537376587078164381e+00
8.727853298187255859e-01,2.536505167067666822e+00
8.747859001159667969e-01,2.536651794511293634e+00
8.767852783203125000e-01,2.529136840002160103e+00
8.787851333618164062e-01,2.522102298987185964e+00
8.807845115661621094e-01,2.519501748025625876e+00
8.827841281890869141e-01,2.517977657077033360e+00
8.847842216491699219e-01,2.515515388907836325e+00
8.867843151092529297e-01,2.514021100285184218e+00
8.887836933135986328e-01,2.512591184686563395e+00
8.907837867736816406e-01,2.511396707462871802e+00
8.927869796752929688e-01,2.509275973948952299e+00
8.947837352752685547e-01,2.507393062996037258e+00
8.967835903167724609e-01,2.506015599491071555e+00
8.987836837768554688e-01,2.505500615298821288e+00
9.007828235626220703e-01,2.504371703192198595e+00
9.027831554412841797e-01,2.502776086661349098e+00
9.047820568084716797e-01,2.502875626429990064e+00
9.067828655242919922e-01,2.502755225033190811e+00
9.087822437286376953e-01,2.500712573613235179e+00
9.107823371887207031e-01,2.500198781514022528e+00
9.127824306488037109e-01,2.499804794765090321e+00
9.147822856903076172e-01,2.499407827783564073e+00
9.167823791503906250e-01,2.499389946387999828e+00
9.187822341918945312e-01,2.499070465453918644e+00
9.207847118377685547e-01,2.500555217332269820e+00
9.227807521820068359e-01,2.499762475462254940e+00
9.247806072235107422e-01,2.498400509166778249e+00
9.267807006835937500e-01,2.499826848486286224e+00
9.287805557250976562e-01,2.499522864761694052e+00
9.307804107666015625e-01,2.500423491051613212e+00
9.327802658081054688e-01,2.500823438265733500e+00
9.347813129425048828e-01,2.501715719904389346e+00
9.367802143096923828e-01,2.502143681304893619e+00
9.387800693511962891e-01,2.502445280843410558e+00
9.407804012298583984e-01,2.503629029229763603e+00
9.427797794342041016e-01,2.503978908536304004e+00
9.447789192199707031e-01,2.505548299020325942e+00
9.467785358428955078e-01,2.506031096700560568e+00
9.487788677215576172e-01,2.506627739265887556e+00
9.507787227630615234e-01,2.508133352772397018e+00
9.527785778045654297e-01,2.507170737644521807e+00
9.547786712646484375e-01,2.508720458593423075e+00
9.567787647247314453e-01,2.509939969770904611e+00
9.587783813476562500e-01,2.510759533734265858e+00
9.607782363891601562e-01,2.520410122920289542e+00
9.627776145935058594e-01,2.526346746247619013e+00
9.647772312164306641e-01,2.530564371414705693e+00
9.667780399322509766e-01,2.534496490299283256e+00
9.687769412994384766e-01,2.536471788462613564e+00
9.707775115966796875e-01,2.540372912928213101e+00
9.727773666381835938e-01,2.542276685509286427e+00
9.747772216796875000e-01,2.544948166006584689e+00
9.767770767211914062e-01,2.547211354638499792e+00
9.787771701812744141e-01,2.549448317223586891e+00
9.807770252227783203e-01,2.551772302600419984e+00
9.827764034271240234e-01,2.554152316350021046e+00
9.847764968872070312e-01,2.555813497997939443e+00
9.867758750915527344e-01,2.558715052451497662e+00
9.887754917144775391e-01,2.560221858051044741e+00
9.907755851745605469e-01,2.561903305280602616e+00
9.927752017974853516e-01,2.564162917633404426e+00
9.947752952575683594e-01,2.564426370194717641e+00
9.967756271362304688e-01,2.565973110911024868e+00
9.987759590148925781e-01,2.566533990685223365e+00
1.000775575637817383e+00,2.568158813495494464e+00
1.002782583236694336e+00,2.569896289097820308e+00
1.004775524139404297e+00,2.569926687470279525e+00
1.006778717041015625e+00,2.570747443526678389e+00
1.008773565292358398e+00,2.566927977434155572e+00
1.010775089263916016e+00,2.571631976560589727e+00
1.012775659561157227e+00,2.572710224713113725e+00
1.014774084091186523e+00,2.572036096100341673e+00
1.016783475875854492e+00,2.572717377271339423e+00
1.018778562545776367e+00,2.569857546074097776e+00
1.020775318145751953e+00,2.572014042379145771e+00
1.022774457931518555e+00,2.573255607277823209e+00
1.024773836135864258e+00,2.572769829364994543e+00
1.026774406433105469e+00,2.571317860045177817e+00
1.028773307800292969e+00,2.572381803081250418e+00
1.030773162841796875e+00,2.572638699130856743e+00
1.032773494720458984e+00,2.572040268425973331e+00
1.034773588180541992e+00,2.571450778418872041e+00
1.036772727966308594e+00,2.572279879126534219e+00
1.038772821426391602e+00,2.571991988657949868e+00
1.040772199630737305e+00,2.571508594931196434e+00
1.042773008346557617e+00,2.570846387248800546e+00
1.044772863388061523e+00,2.570666381200120476e+00
1.046772003173828125e+00,2.568946786993358877e+00
1.048771858215332031e+00,2.568946190946840069e+00
1.050771951675415039e+00,2.568803735828844914e+00
1.052771568298339844e+00,2.568286367450519414e+00
1.054771900177001953e+00,2.566553064173825227e+00
1.056770801544189453e+00,2.566773005339265445e+00
1.058773994445800781e+00,2.565537400905776089e+00
1.060770988464355469e+00,2.560733265964182159e+00
1.062771558761596680e+00,2.563158579249212643e+00
1.064770698547363281e+00,2.562569089242111353e+00
1.066770792007446289e+00,2.561342425506404119e+00
1.068770408630371094e+00,2.561068840154271165e+00
1.070770978927612305e+00,2.560092515956463366e+00
1.072769165039062500e+00,2.559463686879120736e+00
1.074769973754882812e+00,2.558413452912980723e+00
1.076769351959228516e+00,2.558088011513711457e+00
1.078769683837890625e+00,2.557241625457003842e+00
1.080769062042236328e+00,2.555601305437243731e+00
1.082768678665161133e+00,2.555268115433229958e+00
1.084769010543823242e+00,2.554051584488342463e+00
1.086769104003906250e+00,2.553874558672256434e+00
1.088768959045410156e+00,2.553713626112178225e+00
1.090768814086914062e+00,2.552871412381102267e+00
1.092768430709838867e+00,2.552568024703028904e+00
1.094767808914184570e+00,2.549444740944474042e+00
1.096767663955688477e+00,2.550564116306795803e+00
1.098767757415771484e+00,2.549478715596046108e+00
1.100766897201538086e+00,2.548932140938299007e+00
1.102766990661621094e+00,2.547943895810115045e+00
1.104767322540283203e+00,2.546741073935159694e+00
1.106767654418945312e+00,2.545855348808210739e+00
1.108766794204711914e+00,2.545709317411102734e+00
1.110767364501953125e+00,2.545590704153859907e+00
1.112766504287719727e+00,2.545301025545719131e+00
1.114766836166381836e+00,2.542831008771778034e+00
1.116766214370727539e+00,2.543548648780423083e+00
1.118766546249389648e+00,2.542469208534861469e+00
1.120765447616577148e+00,2.542726104584467794e+00
1.122769355773925781e+00,2.541879718527760179e+00
1.124765396118164062e+00,2.541830246666699100e+00
1.126765489578247070e+00,2.540806238747386647e+00
1.128765344619750977e+00,2.540234034089330795e+00
1.130765914916992188e+00,2.540242974787112917e+00
1.132765054702758789e+00,2.539909784783099145e+00
1.134765863418579102e+00,2.539123003378272347e+00
1.136765003204345703e+00,2.539604012918950549e+00
1.138764858245849609e+00,2.539279763612718899e+00
1.140764236450195312e+00,2.539782826874593002e+00
1.142764091491699219e+00,2.539016311051405683e+00
1.144806385040283203e+00,2.538748090117942002e+00
1.146816253662109375e+00,2.516378464267071013e+00
1.148767471313476562e+00,2.523590031098131181e+00
1.150775909423828125e+00,2.528924647441464391e+00
1.152780294418334961e+00,2.529482546983068847e+00
1.154779195785522461e+00,2.528751197904491210e+00
1.156778097152709961e+00,2.530407015133740334e+00
1.158777952194213867e+00,2.531593147706168612e+00
1.160776853561401367e+00,2.531866137011782758e+00
1.162777185440063477e+00,2.531606260729582392e+00
1.164777517318725586e+00,2.533259693772756282e+00
1.166776418685913086e+00,2.533160154004115316e+00
1.168776512145996094e+00,2.534796897744762578e+00
1.170776367187500000e+00,2.535292212401892176e+00
1.172776460647583008e+00,2.535652820545771124e+00
1.174776554107666016e+00,2.536228005436421018e+00
1.176775455474853516e+00,2.537694875919207949e+00
1.178775548934936523e+00,2.538053695923530473e+00
1.180774688720703125e+00,2.537989918946017998e+00
1.182774305343627930e+00,2.538168732901660452e+00
1.184774398803710938e+00,2.539552752918333045e+00
1.186774730682373047e+00,2.539834086875210506e+00
1.188774585723876953e+00,2.540257279903564314e+00
1.190774202346801758e+00,2.540957634563163925e+00
1.192774057388305664e+00,2.541041677122315878e+00
1.194774150848388672e+00,2.540670340141098382e+00
1.196773529052734375e+00,2.542324965277309889e+00
1.198773860931396484e+00,2.542967503424585107e+00
1.200773477554321289e+00,2.542493646442132604e+00
1.202773571014404297e+00,2.543341224591877836e+00
1.204771995544433594e+00,2.543753688782893096e+00
1.206773042678833008e+00,2.543925350180309852e+00
1.208772182464599609e+00,2.544420664837439450e+00
1.210773229598999023e+00,2.544970219727780592e+00
1.212772369384765625e+00,2.544660871584519146e+00
1.214771986007690430e+00,2.545222943451755260e+00
1.216771841049194336e+00,2.544884985075591022e+00
1.218771696090698242e+00,2.545904820669271817e+00
1.220772027969360352e+00,2.546562856026036048e+00
1.222772359848022461e+00,2.546403115558995456e+00
1.224771738052368164e+00,2.546047871833785781e+00
1.226771593093872070e+00,2.546404903698551880e+00
1.228770732879638672e+00,2.544598286700044287e+00
1.230771064758300781e+00,2.546818559982604757e+00
1.232770919799804688e+00,2.546372121140017430e+00
1.234770774841308594e+00,2.545205658102709823e+00
1.236770153045654297e+00,2.545693224155094914e+00
1.238770961761474609e+00,2.546704119050993587e+00
1.240770578384399414e+00,2.546282118115677395e+00
1.242770671844482422e+00,2.545853560668654314e+00
1.244769573211669922e+00,2.547028368357225681e+00
1.246769428253173828e+00,2.545674150666493052e+00
1.248770236968994141e+00,2.546078866252763806e+00
1.250769615173339844e+00,2.546054428345492671e+00
1.252769470214843750e+00,2.546619480445322825e+00
1.254769325256347656e+00,2.546063965089793601e+00
1.256768941879272461e+00,2.546371525093498622e+00
1.258775949478149414e+00,2.546013897182213714e+00
1.260768651962280273e+00,2.539977138039724469e+00
1.262768983840942383e+00,2.544582193444036466e+00
1.264768123626708984e+00,2.543689315758861813e+00
1.266768455505371094e+00,2.543977206227446164e+00
1.268768072128295898e+00,2.544830744842379477e+00
1.270767927169799805e+00,2.544241254835278188e+00
1.272768259048461914e+00,2.544115489019809662e+00
1.274768590927124023e+00,2.543459837849120664e+00
1.276767492294311523e+00,2.543222015288116200e+00
1.278768062591552734e+00,2.543950980180618604e+00
1.280766963958740234e+00,2.542738621561362766e+00
1.282767295837402344e+00,2.543801372504397751e+00
1.284766197204589844e+00,2.543400233197239846e+00
1.286767244338989258e+00,2.543015187146089762e+00
1.288766622543334961e+00,2.542403047371273761e+00
1.290766239166259766e+00,2.542660539467398895e+00
1.292765855789184570e+00,2.542496626674726645e+00
1.294766426086425781e+00,2.541356389684246597e+00
1.296765565872192383e+00,2.540596430372766168e+00
1.298766136169433594e+00,2.540718619909121845e+00
1.300765991210937500e+00,2.540344898741829116e+00
1.302765607833862305e+00,2.540782992933153128e+00
1.304765224456787109e+00,2.540043895249830985e+00
1.306765317916870117e+00,2.540185754321307332e+00
1.308765649795532227e+00,2.540341918509235075e+00
1.310764789581298828e+00,2.540359799904799321e+00
1.312764406204223633e+00,2.540202443623833961e+00
1.314764976501464844e+00,2.539918129434362459e+00
1.316764116287231445e+00,2.539305393613027650e+00
1.318764209747314453e+00,2.540076677808365435e+00
1.320764303207397461e+00,2.539931242457776239e+00
1.322764158248901367e+00,2.540445630603507698e+00
1.324763774871826172e+00,2.539006774307104752e+00
1.326764106750488281e+00,2.539447848731022805e+00
1.328763484954833984e+00,2.539752428502133785e+00
1.330763339996337891e+00,2.537888591037820607e+00
1.332762479782104492e+00,2.538964455004269372e+00
1.334762573242187500e+00,2.538456027323725994e+00
1.336761951446533203e+00,2.539395992683886494e+00
1.338762283325195312e+00,2.539388244079141987e+00
1.340761661529541016e+00,2.538808886862860437e+00
1.342763185501098633e+00,2.538550202673697687e+00
1.344762563705444336e+00,2.538842861514432503e+00
1.346762418746948242e+00,2.538529341045539400e+00
1.348790645599365234e+00,2.538798754072040698e+00
1.350765466690063477e+00,2.524692121111407506e+00
1.352762699127197266e+00,2.532155815619923533e+00
1.354760169982910156e+00,2.532254759342045691e+00
1.356758356094360352e+00,2.532161180038592807e+00
1.358763933181762695e+00,2.533442680054030394e+00
1.360761404037475586e+00,2.533503476798948828e+00
1.362761020660400391e+00,2.534635965184684370e+00
1.364760398864746094e+00,2.534334365646167431e+00
1.366760492324829102e+00,2.535318438448719736e+00
1.368759870529174805e+00,2.535821501710593839e+00
1.370759963989257812e+00,2.536147539156381914e+00
1.372760295867919922e+00,2.537112538470332357e+00
1.374758720397949219e+00,2.537244860797507773e+00
1.376758813858032227e+00,2.537218038704161405e+00
1.378759622573852539e+00,2.537489239870219127e+00
1.380761384963989258e+00,2.537800972199555805e+00
1.382758855819702148e+00,2.537600700569236256e+00
1.384759187698364258e+00,2.538134162203569577e+00
1.386758327484130859e+00,2.539241020588996367e+00
1.388759136199951172e+00,2.539390628265217220e+00
1.390758037567138672e+00,2.540896241771726682e+00
1.392758369445800781e+00,2.540113632692531542e+00
1.394757509231567383e+00,2.541396324801006745e+00
1.396757602691650391e+00,2.541756932944885694e+00
1.398757457733154297e+00,2.540945117586268953e+00
1.400757074356079102e+00,2.542061512715996674e+00
1.402756929397583008e+00,2.541562025733235419e+00
1.404757261276245117e+00,2.541912501086294629e+00
1.406756401062011719e+00,2.542631929234496102e+00
1.408756732940673828e+00,2.543073599704932963e+00
1.410756587982177734e+00,2.542795245980649543e+00
1.412756204605102539e+00,2.543620770409198872e+00
1.414757013320922852e+00,2.543832366923375776e+00
1.416756629943847656e+00,2.543366854592186588e+00
1.418755054473876953e+00,2.543638651804763118e+00
1.420755624771118164e+00,2.544006412506867765e+00
1.422755002975463867e+00,2.543949788087580988e+00
1.424754858016967773e+00,2.544531529489937771e+00
1.426754951477050781e+00,2.545087640891985803e+00
1.428754091262817383e+00,2.544486826001027158e+00
1.430754423141479492e+00,2.544988101123344837e+00
1.432754516601562500e+00,2.543685143433230156e+00
1.434754371643066406e+00,2.544648354607624174e+00
1.436754226684570312e+00,2.544394438790611890e+00
1.438753366470336914e+00,2.544493382512734048e+00
1.440752983093261719e+00,2.545048897868263271e+00
1.442753553390502930e+00,2.544612591816495684e+00
1.444753408432006836e+00,2.545466726477947805e+00
1.446752786636352539e+00,2.545378511593164195e+00
1.448753595352172852e+00,2.545147245543866621e+00
1.450753688812255859e+00,2.545807665086706084e+00
1.452753067016601562e+00,2.546254103929293411e+00
1.454752683639526367e+00,2.546714251841813326e+00
1.456754684448242188e+00,2.545245593219469971e+00
1.458759307861328125e+00,2.543108170403023838e+00
1.460751533508300781e+00,2.541977470156844721e+00
1.462752580642700195e+00,2.543585007618070382e+00
1.464752435684204102e+00,2.543143337147633520e+00
1.466752529144287109e+00,2.543092673193534825e+00
1.468751430511474609e+00,2.543347185057065918e+00
1.470751762390136719e+00,2.543853824598052871e+00
1.472751140594482422e+00,2.542748754352182505e+00
1.474752426147460938e+00,2.543447916918744500e+00
1.476750850677490234e+00,2.542156880159005983e+00
1.478750467300415039e+00,2.542562191791795545e+00
1.480750083923339844e+00,2.543156450171047300e+00
1.482750892639160156e+00,2.542959158773321793e+00
1.484750032424926758e+00,2.543480699477278950e+00
1.486750125885009766e+00,2.542837565283484924e+00
1.488749504089355469e+00,2.541045253401428727e+00
1.490749597549438477e+00,2.541365926428547528e+00
1.492749214172363281e+00,2.542097275507125165e+00
1.494749784469604492e+00,2.542497818767764262e+00
1.496764421463012695e+00,2.542190854810578049e+00
1.498769283294677734e+00,2.536679808697677618e+00
1.500749111175537109e+00,2.531185451887303817e+00
1.502777338027954102e+00,2.535003725886789017e+00
1.504784107208251953e+00,2.517879309401430010e+00
1.506755590438842773e+00,2.508362234635619359e+00
1.508749008178710938e+00,2.525849047404414183e+00
1.510773897171020508e+00,2.527782622311427918e+00
1.512751817703247070e+00,2.516545357292337304e+00
1.514752149581909180e+00,2.524876299485719233e+00
1.516747713088989258e+00,2.524880471811350890e+00
1.518749952316284180e+00,2.526744309275664069e+00
1.520748138427734375e+00,2.527209225560334449e+00
1.522747993469238281e+00,2.529309097446095667e+00
1.524747371673583984e+00,2.530901137697832315e+00
1.526747465133666992e+00,2.531041804676271045e+00
1.528747081756591797e+00,2.531838718871917582e+00
1.530746936798095703e+00,2.532892529117170444e+00
1.532746553421020508e+00,2.532822791674469887e+00
1.534746646881103516e+00,2.533842031221631874e+00
1.536746263504028320e+00,2.533342544238870619e+00
1.538746833801269531e+00,2.535776798221683226e+00
1.540746450424194336e+00,2.536343638461069805e+00
1.542746305465698242e+00,2.536851470095094374e+00
1.544745922088623047e+00,2.536796037768845213e+00
1.546747446060180664e+00,2.538408939648740148e+00
1.548745393753051758e+00,2.538096015226365854e+00
1.550746440887451172e+00,2.539863889201150915e+00
1.552746534347534180e+00,2.539165322681107728e+00
1.554745435714721680e+00,2.541092341076414574e+00
1.556745290756225586e+00,2.539783422921111811e+00
1.558745145797729492e+00,2.541659181315801153e+00
1.560744524002075195e+00,2.542103235972313247e+00
1.562744855880737305e+00,2.542779748771160531e+00
1.564743995666503906e+00,2.542821472027477103e+00
1.566745281219482422e+00,2.543762033434156411e+00
1.568743467330932617e+00,2.544254367858691968e+00
1.570743799209594727e+00,2.545011942984097164e+00
1.572742938995361328e+00,2.545267646940665873e+00
1.574743747711181641e+00,2.545733755318373870e+00
1.576742410659790039e+00,2.544752662748415606e+00
1.578745126724243164e+00,2.546553915328253925e+00
1.580743074417114258e+00,2.543016975285646186e+00
1.582749605178833008e+00,2.545934622995212226e+00
1.584742546081542969e+00,2.546355431837490801e+00
1.586742877960205078e+00,2.547070687660061061e+00
1.588742256164550781e+00,2.546680277190241259e+00
1.590742111206054688e+00,2.547808593250345588e+00
1.592741250991821289e+00,2.548224037673954889e+00
1.594742059707641602e+00,2.548072045811658803e+00
1.596741437911987305e+00,2.548336094419490827e+00
1.598740816116333008e+00,2.548412388373898274e+00
1.600741147994995117e+00,2.549126452103430474e+00
1.602750539779663086e+00,2.549096649777490065e+00
1.604779958724975586e+00,2.542628949001902061e+00
1.606744527816772461e+00,2.488568721839037323e+00
1.608737945556640625e+00,2.530175153037923952e+00
1.610759258270263672e+00,2.532469336088816636e+00
1.612737178802490234e+00,2.533709112847937650e+00
1.614738464355468750e+00,2.534782592628311182e+00
1.616746664047241211e+00,2.533676330289403200e+00
1.618744850158691406e+00,2.535386387751863868e+00
1.620740890502929688e+00,2.535448972636338727e+00
1.622740983963012695e+00,2.536289398227858261e+00
1.624740123748779297e+00,2.537768189641021355e+00
1.626740932464599609e+00,2.538670008023978131e+00
1.628739833831787109e+00,2.538670008023978131e+00
1.630740404129028320e+00,2.540127937808982939e+00
1.632739067077636719e+00,2.540111248506456310e+00
1.634739875793457031e+00,2.539984290597950167e+00
1.636738538742065430e+00,2.541975085970769488e+00
1.638738632202148438e+00,2.542629545048420869e+00
1.640737771987915039e+00,2.542935912959088274e+00
1.642739295959472656e+00,2.543716137852208181e+00
1.644737958908081055e+00,2.544410532046619711e+00
1.646738290786743164e+00,2.544894521819891953e+00
1.648737430572509766e+00,2.545764153690833087e+00
1.650737524032592773e+00,2.546056216485049095e+00
1.652737379074096680e+00,2.546062772996755985e+00
1.654737472534179688e+00,2.546431725791898248e+00
1.656736373901367188e+00,2.546344703000152254e+00
1.658738851547241211e+00,2.546966379519269630e+00
1.660740613937377930e+00,2.546973532077495328e+00
1.662736177444458008e+00,2.543556993431686397e+00
1.664736270904541016e+00,2.543921773901197003e+00
1.666737079620361328e+00,2.544914191355012623e+00
1.668735980987548828e+00,2.545189564846702002e+00
1.670735597610473633e+00,2.546144431369832706e+00
1.672735691070556641e+00,2.545335596243810006e+00
1.674736499786376953e+00,2.546384042070393594e+00
1.676735401153564453e+00,2.545478647408323969e+00
1.678734779357910156e+00,2.546314304627693037e+00
1.680735588073730469e+00,2.546934789053772796e+00
1.682734727859497070e+00,2.546755975098129898e+00
1.684734106063842773e+00,2.547472423013737775e+00
1.686734199523925781e+00,2.546911543239539277e+00
1.688734054565429688e+00,2.546838229517725427e+00
1.690734386444091797e+00,2.547018831612924750e+00
1.692734241485595703e+00,2.546996181845210039e+00
1.694734334945678711e+00,2.548237150697368669e+00
1.696733951568603516e+00,2.547464078362474460e+00
1.698733091354370117e+00,2.548456495816290079e+00
1.700732469558715820e+00,2.548007076741108712e+00
1.702732086181640625e+00,2.547177976033446534e+00
1.704730272293090820e+00,2.548135226742652470e+00
1.706735134124755859e+00,2.547639912085522873e+00
1.708733320236206055e+00,2.544581001350998850e+00
1.710732460021972656e+00,2.546598022770645731e+00
1.712732076644897461e+00,2.546576565095968636e+00
1.714732646942138672e+00,2.547301953709358635e+00
1.716732263565063477e+00,2.546462124164357466e+00
1.718732357025146484e+00,2.547579711387123247e+00
1.720731019973754883e+00,2.545142477171716155e+00
1.722730875015258789e+00,2.545951908344257664e+00
1.724731206893920898e+00,2.546193307184374977e+00
1.726731300354003906e+00,2.545121019497039061e+00
1.728730440139770508e+00,2.545867865785105710e+00
1.730731010437011719e+00,2.545485203920030859e+00
1.732730388641357422e+00,2.545841043691759342e+00
1.734730958938598633e+00,2.546032970670815576e+00
1.736730098724365234e+00,2.543244665055830911e+00
1.738729715347290039e+00,2.545252149731176861e+00
1.740729331970214844e+00,2.545380299732720619e+00
1.742741823196411133e+00,2.545152609962535895e+00
1.744742631912231445e+00,2.543852036458496446e+00
1.746731042861938477e+00,2.545427983454225274e+00
1.748729228973388672e+00,2.544318740882723251e+00
1.750729322433471680e+00,2.543962901110994768e+00
1.752729177474975586e+00,2.543817465760405572e+00
1.754729270935058594e+00,2.543466990407346362e+00
1.756728649139404297e+00,2.542400067138679720e+00
1.758729219436645508e+00,2.543192212962175791e+00
1.760728359222412109e+00,2.542903726447072632e+00
1.762727975845336914e+00,2.542426293185507280e+00
1.764727592468261719e+00,2.542452519232334840e+00
1.766727924346923828e+00,2.542684381328151222e+00
1.768727540969848633e+00,2.543187444590025326e+00
1.770726680755615234e+00,2.542153303879893134e+00
1.772727251052856445e+00,2.542061512715996674e+00
1.774727582931518555e+00,2.542166416903306914e+00
1.776726484298706055e+00,2.540740673630317747e+00
1.778727054595947266e+00,2.541415398289608607e+00
1.780726909637451172e+00,2.541473214801933000e+00
1.782726764678955078e+00,2.541422550847834305e+00
1.784725666046142578e+00,2.540997569679924073e+00
1.786725997924804688e+00,2.540739481537280131e+00
1.788725137710571289e+00,2.540316288508926323e+00
1.790725708007812500e+00,2.540704314792670448e+00
1.792726993560791016e+00,2.540734117118610857e+00
1.794725418090820312e+00,2.540266220601346436e+00
1.796725511550903320e+00,2.539354865474088729e+00
1.798724651336669922e+00,2.539984886644468975e+00
1.800724983215332031e+00,2.540694182001850709e+00
1.802724838256835938e+00,2.540667955955023150e+00
1.804724454879760742e+00,2.539820377805277918e+00
1.806724548339843750e+00,2.539882366643233969e+00
1.808723688125610352e+00,2.540371124788656676e+00
1.810724496841430664e+00,2.539303009426952418e+00
1.812723398208618164e+00,2.538674776396128596e+00
1.814723968505859375e+00,2.539304797566508842e+00
1.816723823547363281e+00,2.538766567560025056e+00
1.818723440170288086e+00,2.539522354545873828e+00
1.820723056793212891e+00,2.539240424542477559e+00
1.822723627090454102e+00,2.540030186179898397e+00
1.824722051620483398e+00,2.539783422921111811e+00
1.826723098754882812e+00,2.540130918041576980e+00
1.828722000122070312e+00,2.539474074777850365e+00
1.830722332000732422e+00,2.540836637119845864e+00
1.832721233367919922e+00,2.540666167815466725e+00
1.834721565246582031e+00,2.541097705495083847e+00
1.836721897125244141e+00,2.539278571519681282e+00
1.838722229003906250e+00,2.539578978965160605e+00
1.840722084045410156e+00,2.540888493166982176e+00
1.842721700668334961e+00,2.541310494102298367e+00
1.844721555709838867e+00,2.540874784097049588e+00
1.846721410751342773e+00,2.541775410386968748e+00
1.848720788955688477e+00,2.541171615263416061e+00
1.850720405578613281e+00,2.542208736206142294e+00
1.852720260620117188e+00,2.542833392957853267e+00
1.854720354080200195e+00,2.543198173427363873e+00
1.856720209121704102e+00,2.543150489705859219e+00
1.858719825744628906e+00,2.543708985293982483e+00
1.860722780227661133e+00,2.545261090428958983e+00
1.862720966339111328e+00,2.544263308556474090e+00
1.864719867706298828e+00,2.544619148328202574e+00
1.866719722747802734e+00,2.546197479510006634e+00
1.868719816207885742e+00,2.546111648811298256e+00
1.870719671249389648e+00,2.546977108356608177e+00
1.872718334197998047e+00,2.546609347654503086e+00
1.874719381332397461e+00,2.547777002784848754e+00
1.876718759536743164e+00,2.546742266028197310e+00
1.878718614578247070e+00,2.548378413722326208e+00
1.880717992782592773e+00,2.548762863726957484e+00
1.882718563079833984e+00,2.549416726758090057e+00
1.884717941284179688e+00,2.549925750485152243e+00
1.886717796325683594e+00,2.550000256300003265e+00
1.888717651367187500e+00,2.550890153752583878e+00
1.890718460083007812e+00,2.551410502363503419e+00
1.892717123031616211e+00,2.550968235846547749e+00
1.894717216491699219e+00,2.551457590038489265e+00
1.896717309951782227e+00,2.550934857241494491e+00
1.898717641830444336e+00,2.551538056318528369e+00
1.900718927383422852e+00,2.552286094699632635e+00
1.902717113494873047e+00,2.548149531859103867e+00
1.904716491699218750e+00,2.551532095853340287e+00
1.906716346740722656e+00,2.550345367234393201e+00
1.908716201782226562e+00,2.551050490266143278e+00
1.910716056823730469e+00,2.552076286325012155e+00
1.912715196609497070e+00,2.551442688875519060e+00
1.914715766906738281e+00,2.551384276316675859e+00
1.916715383529663086e+00,2.550745314448513490e+00
1.918715238571166992e+00,2.551347917479028560e+00
1.920714855194091797e+00,2.551634019808056486e+00
1.922715663909912109e+00,2.551638788180206951e+00
1.924714565277099609e+00,2.551404541898315337e+00
1.926715135574340820e+00,2.550430601886582771e+00
1.928714036941528320e+00,2.550952738637058737e+00
1.930715322494506836e+00,2.551444477015075485e+00
1.932714939117431641e+00,2.551131552592701190e+00
1.934714317321777344e+00,2.550694054447895986e+00
1.936714172363281250e+00,2.550401395607161170e+00
1.938714265823364258e+00,2.548936313263930664e+00
1.940715074539184570e+00,2.549993699788296375e+00
1.942713737487792969e+00,2.548864787681673683e+00
1.944712877273559570e+00,2.549050754195541835e+00
1.946713447570800781e+00,2.548449343258064381e+00
1.948713541030883789e+00,2.548921412100960460e+00
1.950713157653808594e+00,2.548860019309523217e+00
1.952713012695312500e+00,2.548877304658568654e+00
1.954713344573974609e+00,2.549006050706631221e+00
1.956711292266845703e+00,2.548354571861573881e+00
1.958712339401245117e+00,2.547957008833528825e+00
1.960711479187011719e+00,2.548237150697368669e+00
1.962711811065673828e+00,2.547906344879430129e+00
1.964711427688598633e+00,2.548399871397003302e+00
1.966710805892944336e+00,2.547706669295629389e+00
1.968842983245849609e+00,2.547899788367723239e+00
1.970727682113647461e+00,2.533679310521997241e+00
1.972711801528930664e+00,2.541234796194409729e+00
1.974714994430541992e+00,2.542023365738792950e+00
1.976711273193359375e+00,2.541565602012348268e+00
1.978711128234863281e+00,2.541912501086294629e+00
1.980710983276367188e+00,2.541774218293931131e+00
1.982710599899291992e+00,2.541295592939328163e+00
1.984709739685058594e+00,2.541866009457827591e+00
1.986709594726562500e+00,2.542064492948590715e+00
1.988709211349487305e+00,2.542307083881745644e+00
1.990709304809570312e+00,2.541745608061028339e+00
1.992709159851074219e+00,2.541620438292078621e+00
1.994709968566894531e+00,2.541305129683629094e+00
1.996709108352661133e+00,2.541683619223072288e+00
1.998712062835693359e+00,2.541753952712291653e+00
2.000709056854248047e+00,2.542322581091234657e+00
2.002709150314331055e+00,2.542349999231099833e+00
2.004708290100097656e+00,2.542463844116192195e+00
2.006708145141601562e+00,2.543241088776718062e+00
2.008708000183105469e+00,2.543097441565685290e+00
2.010708570480346680e+00,2.543355529708329232e+00
2.012707710266113281e+00,2.542832796911334459e+00
2.014707565307617188e+00,2.542880480632839113e+00
2.016707658767700195e+00,2.542870347842019374e+00
2.018707752227783203e+00,2.543040221099879705e+00
2.020706653594970703e+00,2.542949025982502054e+00
2.022706508636474609e+00,2.542871539935056990e+00
2.024769783020019531e+00,2.542816107608807830e+00
2.026770591735839844e+00,2.536350194972776695e+00
2.028722524642944336e+00,2.526201310897029817e+00
2.030741691589355469e+00,2.520297470128234796e+00
2.032701730728149414e+00,2.511670888861523565e+00
2.034695148468017578e+00,2.515877785191272142e+00
2.036699295043945312e+00,2.519455256397158838e+00
2.038693189620971680e+00,2.519930305472648957e+00
2.040689945220947266e+00,2.518781723830905594e+00
2.042693614959716797e+00,2.522188725732413150e+00
2.044692039489746094e+00,2.522636356668038093e+00
2.046692848205566406e+00,2.524587812970616074e+00
2.048691034317016602e+00,2.524271908315647739e+00
2.050692796707153320e+00,2.526060047872072278e+00
2.052693367004394531e+00,2.527177039048318807e+00
2.054691076278686523e+00,2.527969780918333687e+00
2.056696891784667969e+00,2.529655400473523219e+00
2.058695793151855469e+00,2.529543939774506089e+00
2.060769796371459961e+00,2.529055777675602190e+00
2.062703132629394531e+00,2.481320200123810604e+00
2.064690828323364258e+00,2.514210047031646411e+00
2.066690683364868164e+00,2.518197002195954770e+00
2.068690299987792969e+00,2.519309821046569642e+00
2.070690155029296875e+00,2.522685828529099172e+00
2.072690725326538086e+00,2.524347010177017570e+00
2.074691772460937500e+00,2.526060047872072278e+00
2.076696395874023438e+00,2.526440325551071897e+00
2.078690767288208008e+00,2.527709904636133320e+00
2.080689430236816406e+00,2.530031505826891181e+00
2.082690000534057617e+00,2.531634274915966376e+00
2.084688901901245117e+00,2.533400956797713821e+00
2.086688041687011719e+00,2.535443012171150645e+00
2.088687896728515625e+00,2.536569540091698105e+00
2.090688943862915039e+00,2.538280193600677581e+00
2.092688083648681641e+00,2.539364402218389660e+00
2.094687938690185547e+00,2.540898625957801915e+00
2.096691131591796875e+00,2.541792695736014185e+00
2.098688125610351562e+00,2.543058102495443951e+00
2.100687503814697266e+00,2.544557159490246523e+00
2.102688074111938477e+00,2.545234268335612615e+00
2.104687213897705078e+00,2.546510999978899736e+00
2.106687307357788086e+00,2.548010653020221561e+00
2.108686685562133789e+00,2.549149101871145184e+00
2.110686540603637695e+00,2.549539512340964542e+00
2.112685918807983398e+00,2.549671238621621150e+00
2.114686012268066406e+00,2.550863331659237510e+00
2.116688489913940430e+00,2.551973766323777149e+00
2.118690252304077148e+00,2.551940387718723890e+00
2.120685338973999023e+00,2.551105326545873631e+00
2.122686386108398438e+00,2.550024694207274401e+00
2.124685287475585938e+00,2.551583951900476599e+00
2.126684904098510742e+00,2.551711505855501549e+00
2.128684997558593750e+00,2.552255100280654609e+00
2.130684852600097656e+00,2.553855485183654572e+00
2.132684946060180664e+00,2.553167647500949933e+00
2.134684085845947266e+00,2.553657597739410257e+00
2.136687755584716797e+00,2.554622001006841892e+00
2.138685226440429688e+00,2.553384608433796110e+00
2.140684843063354492e+00,2.554287618909790503e+00
2.142683744430541992e+00,2.553775018903615468e+00
2.144684076309204102e+00,2.554390138911025510e+00
2.146683692932128906e+00,2.554465836818914148e+00
2.148683309555053711e+00,2.555238909153808358e+00
2.150683641433715820e+00,2.555905289161835903e+00
2.152682781219482422e+00,2.555553025669220268e+00
2.154683113098144531e+00,2.555074996361136108e+00
2.156688451766967773e+00,2.555972642418461227e+00
2.158685445785522461e+00,2.554820484497605015e+00
2.160682916641235352e+00,2.554977244732051567e+00
2.162683486938476562e+00,2.555135793106054543e+00
2.164682388305664062e+00,2.554869360312147286e+00
2.166682958602905273e+00,2.555021352174443372e+00
2.168681383132934570e+00,2.555509514273347271e+00
2.170681953430175781e+00,2.555336660782892899e+00
2.172680854797363281e+00,2.555384940550916362e+00
2.174680709838867188e+00,2.554902738917200544e+00
2.176684856414794922e+00,2.554613656355578577e+00
2.178682565689086914e+00,2.553597397041010630e+00
2.180680751800537109e+00,2.553669518669786420e+00
2.182681083679199219e+00,2.554074830302575982e+00
2.184680461883544922e+00,2.553329772154065758e+00
2.186680316925048828e+00,2.553417987038849368e+00
2.188680648803710938e+00,2.553765482159314537e+00
2.190679073333740234e+00,2.552498883306847155e+00
2.192680120468139648e+00,2.553102082383881033e+00
2.194679021835327148e+00,2.553189701222145835e+00
2.196681737899780273e+00,2.553090161453504869e+00
2.198680400848388672e+00,2.552097147953170442e+00
2.200679063796997070e+00,2.551700180971644194e+00
2.202679872512817383e+00,2.552733725635257578e+00
2.204679250717163086e+00,2.552043503766477706e+00
2.206679344177246094e+00,2.551189369105025584e+00
2.208679199218750000e+00,2.551410502363503419e+00
2.210678815841674805e+00,2.550254172117015550e+00
2.212678194046020508e+00,2.550434178165695620e+00
2.214677810668945312e+00,2.549935883275971982e+00
2.216680765151977539e+00,2.550007408858228963e+00
2.218687534332275391e+00,2.548424309304274438e+00
2.220691442489624023e+00,2.547149365800543741e+00
2.222695589065551758e+00,2.548538154189366800e+00
2.224692821502685547e+00,2.548012441159777985e+00
2.226692676544189453e+00,2.548501795351719501e+00
2.228691339492797852e+00,2.549017971637007385e+00
2.230691194534301758e+00,2.548999494194924331e+00
2.232691526412963867e+00,2.549120491638242392e+00
2.234690189361572266e+00,2.548818892099725453e+00
2.236695289611816406e+00,2.549860185368083343e+00
2.238693714141845703e+00,2.548978632566766045e+00
2.240690946578979492e+00,2.550015753509492278e+00
2.242691516876220703e+00,2.548933333031336623e+00
2.244690418243408203e+00,2.548755115122212977e+00
2.246690988540649414e+00,2.550428813747026346e+00
2.248689413070678711e+00,2.549665278156433068e+00
2.250690221786499023e+00,2.549860781414602151e+00
2.252688884735107422e+00,2.549979990718363787e+00
2.254689455032348633e+00,2.549228972104665480e+00
2.256696462631225586e+00,2.549277251872688943e+00
2.258690357208251953e+00,2.547362750454277069e+00
2.260695695877075195e+00,2.548468416746666243e+00
2.262689113616943359e+00,2.542329137602941547e+00
2.264688730239868164e+00,2.544470732745019337e+00
2.266688823699951172e+00,2.546889489518343375e+00
2.268688201904296875e+00,2.545768922062983552e+00
2.270688295364379883e+00,2.546343510907114638e+00
2.272687911987304688e+00,2.545818989970563440e+00
2.274688243865966797e+00,2.545808261133224892e+00
2.276690721511840820e+00,2.545794552063292304e+00
2.278688192367553711e+00,2.544119661345441319e+00
2.280686855316162109e+00,2.545637791828845753e+00
2.282687664031982422e+00,2.546120589509080379e+00
2.284686803817749023e+00,2.546168273230585033e+00
2.286687374114990234e+00,2.545807069040187276e+00
2.288687229156494141e+00,2.545377915546645387e+00
2.290687322616577148e+00,2.545768922062983552e+00
2.292686223983764648e+00,2.545614546014612234e+00
2.294686555862426758e+00,2.545706933225027502e+00
2.296689271926879883e+00,2.546004956484431592e+00
2.298686265945434570e+00,2.543739979712960508e+00
2.300685644149780273e+00,2.545210426474860288e+00
2.302685260772705078e+00,2.545386856244427509e+00
2.304685592651367188e+00,2.545299237406162707e+00
2.306685209274291992e+00,2.545661633689598080e+00
2.308684349060058594e+00,2.544976776239487481e+00
2.310684919357299805e+00,2.545575802990889702e+00
2.312684297561645508e+00,2.545445864849789519e+00
2.314683198928833008e+00,2.545112674845775746e+00
2.316685199737548828e+00,2.544852798563575380e+00
2.318686723709106445e+00,2.544179265997322137e+00
2.320684194564819336e+00,2.542947237842945629e+00
2.322683572769165039e+00,2.543748324364223823e+00
2.324683189392089844e+00,2.544150059717900536e+00
2.326683759689331055e+00,2.544467752512425296e+00
2.328683137893676758e+00,2.544849818330981339e+00
2.330683469772338867e+00,2.545143073218234964e+00
2.332683086395263672e+00,2.544747298329746332e+00
2.334682703018188477e+00,2.544679945073121008e+00
2.336685419082641602e+00,2.545074527868572023e+00
2.338684082031250000e+00,2.543784683201871122e+00
2.340682268142700195e+00,2.544458215768124365e+00
2.342681884765625000e+00,2.543831770876856968e+00
2.344694375991821289e+00,2.543033664588172815e+00
2.347125291824340820e+00,2.542728488770543027e+00
2.349047660827636719e+00,2.536727492419182273e+00
2.351678371429443359e+00,2.523595395516800455e+00
2.353679418563842773e+00,2.532279793295835635e+00
2.355684518814086914e+00,2.533093992840527608e+00
2.357680320739746094e+00,2.533433143309729463e+00
2.359677791595458984e+00,2.533901635873512692e+00
2.361681222915649414e+00,2.535289232169298135e+00
2.363679647445678711e+00,2.535160486121235568e+00
2.365682125091552734e+00,2.536740605442596053e+00
2.367678642272949219e+00,2.537426654985744268e+00
2.369679450988769531e+00,2.538273041042451883e+00
2.371678590774536133e+00,2.537829582432458597e+00
2.373679876327514648e+00,2.539083068261512199e+00
2.375681400299072266e+00,2.539852564317293560e+00
2.377681016921997070e+00,2.539507453382903623e+00
2.379678010940551758e+00,2.539907400597023912e+00
2.381678581237792969e+00,2.540689413629700244e+00
2.383677482604980469e+00,2.541073267587812712e+00
2.385677814483642578e+00,2.541829650620180292e+00
2.387677192687988281e+00,2.541891043411617535e+00
2.389678001403808594e+00,2.542088930855861850e+00
2.391676425933837891e+00,2.541960780854318092e+00
2.393676996231079102e+00,2.542203967833991829e+00
2.395679473876953125e+00,2.543603485060153435e+00
2.397677659988403320e+00,2.542795842027168352e+00
2.399676084518432617e+00,2.543521826687076715e+00
2.401677131652832031e+00,2.544079726228681171e+00
2.403676033020019531e+00,2.544757431120566071e+00
2.405676364898681641e+00,2.544562523908915797e+00
2.407675027847290039e+00,2.544841473679718025e+00
2.409676790237426758e+00,2.545083468566354146e+00
2.411674737930297852e+00,2.545402949500435330e+00
2.413675546646118164e+00,2.545241420893838313e+00
2.415676832199096680e+00,2.546087806950545929e+00
2.417676448822021484e+00,2.545746868341787650e+00
2.419674158096313477e+00,2.546500867188079997e+00
2.421675682067871094e+00,2.545671170433899011e+00
2.423674106597900391e+00,2.546748226493385392e+00
2.425675153732299805e+00,2.546284502301752628e+00
2.427673339843750000e+00,2.546350663465340336e+00
2.429674148559570312e+00,2.547270959290380610e+00
2.431672811508178711e+00,2.547491496502339636e+00
2.433674097061157227e+00,2.546515172304531394e+00
2.435674905776977539e+00,2.546194499277412593e+00
2.437674760818481445e+00,2.546447819047906069e+00
2.439672470092773438e+00,2.547775810691811138e+00
2.441673755645751953e+00,2.547141617195799235e+00
2.443672657012939453e+00,2.547827070692428642e+00
2.445673704147338867e+00,2.546255296022331027e+00
2.447671413421630859e+00,2.546840613703800660e+00
2.449672937393188477e+00,2.547200029754642436e+00
2.451671123504638672e+00,2.547585075805792520e+00
2.453672170639038086e+00,2.547284668360313198e+00
2.455673694610595703e+00,2.547166055103070370e+00
2.457672834396362305e+00,2.546536033932689680e+00
2.459676265716552734e+00,2.546354239744453185e+00
2.461671590805053711e+00,2.543950384134099796e+00
2.463671207427978516e+00,2.543143933194152329e+00
2.465672254562377930e+00,2.545227115777386917e+00
2.467670917510986328e+00,2.545407121826066987e+00
2.469671964645385742e+00,2.544089859019500910e+00
2.471671104431152344e+00,2.543704812968350826e+00
2.473670482635498047e+00,2.545191352986258426e+00
2.475672721862792969e+00,2.544577425071886001e+00
2.477672100067138672e+00,2.544437950186484887e+00
2.479669094085693359e+00,2.544744318097152291e+00
2.481670379638671875e+00,2.544305627859309471e+00
2.483669042587280273e+00,2.544711535538617841e+00
2.485669612884521484e+00,2.544411128093138519e+00
2.487668752670288086e+00,2.544405167627950437e+00
2.489670276641845703e+00,2.544455831582049132e+00
2.491668462753295898e+00,2.545507257641226762e+00
2.493669271469116211e+00,2.544771736237017468e+00
2.495670557022094727e+00,2.544758027167084879e+00
2.497669935226440430e+00,2.544847434144906106e+00
2.499667882919311523e+00,2.544237678556165339e+00
2.501668691635131836e+00,2.544742529957595867e+00
2.503667831420898438e+00,2.544471924838056953e+00
2.505668640136718750e+00,2.544527953210824922e+00
2.507667779922485352e+00,2.545453613454534025e+00
2.509667873382568359e+00,2.544673388561414118e+00
2.511667728424072266e+00,2.539995019435288715e+00
2.513667583465576172e+00,2.542703454816753084e+00
2.515666007995605469e+00,2.543107574356505030e+00
2.517670631408691406e+00,2.543070023425820114e+00
2.519666194915771484e+00,2.543621962502236489e+00
2.521667957305908203e+00,2.544063036926154542e+00
2.523666381835937500e+00,2.543632691339575036e+00
2.525666952133178711e+00,2.543756669015487137e+00
2.527665853500366211e+00,2.543585603664589190e+00
2.529667139053344727e+00,2.543346589010547110e+00
2.531665325164794922e+00,2.543900316226519909e+00
2.533666372299194336e+00,2.542817299701845446e+00
2.535664558410644531e+00,2.544118469252403703e+00
2.537668228149414062e+00,2.543633287386093844e+00
2.539665222167968750e+00,2.543720906224358647e+00
2.541666507720947266e+00,2.544533317629494196e+00
2.543663978576660156e+00,2.543344800870990685e+00
2.545665740966796875e+00,2.544219201114082285e+00
2.547668933868408203e+00,2.541969721552100214e+00
2.549667119979858398e+00,2.542145555275148627e+00
2.551665544509887695e+00,2.543409769941540777e+00
2.553665399551391602e+00,2.542872732028094607e+00
2.555663347244262695e+00,2.542705242956309508e+00
2.557669162750244141e+00,2.541991775273296117e+00
2.559663772583007812e+00,2.542634313420571335e+00
2.561664581298828125e+00,2.543527787152264796e+00
2.563663482666015625e+00,2.542845313888229430e+00
2.565663814544677734e+00,2.543896143900888251e+00
2.567662477493286133e+00,2.543314998545050276e+00
2.569663524627685547e+00,2.543345396917509493e+00
2.571662187576293945e+00,2.543502157151956045e+00
2.573663473129272461e+00,2.543638055758244310e+00
2.575661420822143555e+00,2.543785875294908738e+00
2.577665567398071289e+00,2.543283408079553443e+00
2.579661607742309570e+00,2.543125455752069275e+00
2.581662654876708984e+00,2.543158238310603725e+00
2.583661079406738281e+00,2.542914455284411179e+00
2.585661888122558594e+00,2.543824022272112462e+00
2.587660074234008789e+00,2.542980020401480079e+00
2.589662075042724609e+00,2.543094461333091250e+00
2.591660022735595703e+00,2.542800610399318817e+00
2.593661069869995117e+00,2.543887799249624937e+00
2.595659971237182617e+00,2.543611233664897942e+00
2.597663879394531250e+00,2.542651002723097964e+00
2.599659681320190430e+00,2.542120521321358684e+00
2.601660728454589844e+00,2.542196219229247323e+00
2.603659629821777344e+00,2.541642492013274524e+00
2.605660438537597656e+00,2.543067043193226073e+00
2.607659101486206055e+00,2.542996113657487900e+00
2.609660148620605469e+00,2.542636697606646567e+00
2.611658573150634766e+00,2.542713587607572823e+00
2.613659858703613281e+00,2.543148105519783986e+00
2.615657806396484375e+00,2.542895381795809318e+00
2.617661952972412109e+00,2.542677228769925524e+00
2.619657993316650391e+00,2.542850082260379896e+00
2.621659278869628906e+00,2.542885845051508387e+00
2.623661994934082031e+00,2.544034426693251749e+00
2.625658988952636719e+00,2.543055122262849910e+00
2.627657651901245117e+00,2.542361920161475997e+00
2.629658222198486328e+00,2.542820279934439487e+00
2.631657361984252930e+00,2.543107574356505030e+00
2.633658170700073242e+00,2.543450897151338541e+00
2.635656356811523438e+00,2.543544476454791425e+00
2.637660026550292969e+00,2.543005650401788831e+00
2.639656543731689453e+00,2.542149727600780285e+00
2.641657590866088867e+00,2.542254035741571716e+00
2.643655776977539062e+00,2.542859022958162019e+00
2.645656347274780273e+00,2.542532985512373944e+00
2.647655487060546875e+00,2.543710773433538908e+00
2.649656057357788086e+00,2.541727726665464093e+00
2.651655435562133789e+00,2.542919819703080453e+00
2.653656244277954102e+00,2.544373577162453604e+00
2.655655145645141602e+00,2.543077772030564621e+00
2.657658100128173828e+00,2.543504541338031277e+00
2.659658670425415039e+00,2.543490832268098689e+00
2.661655426025390625e+00,2.542903726447072632e+00
2.663655281066894531e+00,2.540899222004320723e+00
2.665655374526977539e+00,2.542774980399010065e+00
2.667654037475585938e+00,2.542621200397157555e+00
2.669654607772827148e+00,2.543302481568155304e+00
2.671654224395751953e+00,2.541535799686407859e+00
2.673654317855834961e+00,2.543273871335252512e+00
2.675653696060180664e+00,2.542419736673800390e+00
2.677666425704956055e+00,2.544166152973908357e+00
2.679653167724609375e+00,2.543393080639014148e+00
2.681654930114746094e+00,2.544056480414447652e+00
2.683653116226196289e+00,2.543992107390416368e+00
2.685653924942016602e+00,2.544623916700353039e+00
2.687652111053466797e+00,2.545070951589459174e+00
2.689653635025024414e+00,2.544466560419387680e+00
2.691652536392211914e+00,2.544939225308802566e+00
2.693652868270874023e+00,2.545020287635360479e+00
2.695651054382324219e+00,2.545534079734573130e+00
2.697657585144042969e+00,2.545559113688363073e+00
2.699653387069702148e+00,2.544805114842070726e+00
2.701654195785522461e+00,2.545174663683731797e+00
2.703651428222656250e+00,2.545309370196982446e+00
2.705651998519897461e+00,2.545826738575307946e+00
2.707651376724243164e+00,2.546313708581174229e+00
2.709652423858642578e+00,2.546425765326710167e+00
2.711650371551513672e+00,2.546807831145266210e+00
2.713650703430175781e+00,2.546193307184374977e+00
2.715649843215942383e+00,2.545983498809754497e+00
2.717653751373291016e+00,2.546816771843048333e+00
2.719651460647583008e+00,2.545266454847628257e+00
2.721652507781982422e+00,2.547138636963205194e+00
2.723649740219116211e+00,2.546473449048214821e+00
2.725696563720703125e+00,2.547060554869241322e+00
2.727685213088989258e+00,2.544718092050324731e+00
2.729655981063842773e+00,2.532712523068490373e+00
2.731649398803710938e+00,2.535992567061491787e+00
2.733651638031005859e+00,2.539113466633971417e+00
2.735651016235351562e+00,2.538253967553850021e+00
2.737658023834228516e+00,2.539651100593936395e+00
2.739650964736938477e+00,2.536388341949980418e+00
2.741651058197021484e+00,2.540280525717797833e+00
2.743649721145629883e+00,2.538613383604691354e+00
2.745650291442871094e+00,2.540836041073327056e+00
2.749139785766601562e+00,2.540566032000306951e+00
2.751136779785156250e+00,2.512810529805484805e+00
2.753896951675415039e+00,2.479910550106829259e+00
2.756011247634887695e+00,2.466243203430557696e+00
2.758901357650756836e+00,2.437749795645451023e+00
2.760984182357788086e+00,2.438725523796740013e+00
2.765158653259277344e+00,2.420659949858182447e+00
2.767123699188232422e+00,2.376500055372721576e+00
2.769714355468750000e+00,2.387882755742401386e+00
2.771649360656738281e+00,2.392012762071223708e+00
2.773645877838134766e+00,2.389233993200539530e+00
2.775639533996582031e+00,2.385844276648077411e+00
2.777673959732055664e+00,2.384440587096284148e+00
2.779665231704711914e+00,2.366518064322240988e+00
2.781772851943969727e+00,2.366456671530803746e+00
2.783733844757080078e+00,2.346362155242223135e+00
2.785689115524291992e+00,2.370450779253337359e+00
2.787673234939575195e+00,2.372854038817171940e+00
2.789700984954833984e+00,2.376692578398296618e+00
2.791704416275024414e+00,2.379706189597390775e+00
2.793690919876098633e+00,2.375195905589569279e+00
2.795678615570068359e+00,2.382275746139972838e+00
2.797687053680419922e+00,2.388243363886280335e+00
2.799683332443237305e+00,2.391475724157777538e+00
2.801677465438842773e+00,2.396212505842746143e+00
2.803678989410400391e+00,2.398293900286424307e+00
2.805685281753540039e+00,2.403810310817994012e+00
2.807672739028930664e+00,2.405887532936040518e+00
2.809675455093383789e+00,2.411132742301552501e+00
2.811661720275878906e+00,2.413460900004017251e+00
2.813668489456176758e+00,2.418846180301449156e+00
2.815663337707519531e+00,2.419818332173625297e+00
2.817679166793823242e+00,2.424871614560081490e+00
2.819674730300903320e+00,2.426015427829674387e+00
2.821711540222167969e+00,2.432344249766379640e+00
2.823671579360961914e+00,2.424446037345652449e+00
2.825699567794799805e+00,2.440253787070964187e+00
2.827663183212280273e+00,2.442022257092268056e+00
2.829669237136840820e+00,2.448657446939640714e+00
2.831660747528076172e+00,2.451262766273351268e+00
2.833670377731323242e+00,2.456436450056606713e+00
2.835670471191406250e+00,2.460623676851234176e+00
2.837671756744384766e+00,2.464473541316216210e+00
2.839661598205566406e+00,2.467207010651470522e+00
2.841666221618652344e+00,2.473327812353111721e+00
2.843660116195678711e+00,2.476604280067000285e+00
2.845671892166137695e+00,2.481308875239953249e+00
2.847663640975952148e+00,2.483099995028971829e+00
2.849686622619628906e+00,2.488556204862142351e+00
2.851711273193359375e+00,2.492757736773221211e+00
2.853718996047973633e+00,2.489902673948130030e+00
2.855658531188964844e+00,2.497188746594041220e+00
2.857661247253417969e+00,2.499191462897236704e+00
2.859652280807495117e+00,2.501563131995574452e+00
2.861693620681762695e+00,2.506323159494776576e+00
2.863836288452148438e+00,2.510552109545720612e+00
2.865865707397460938e+00,2.507090867411001511e+00
2.867889642715454102e+00,2.507053912526835404e+00
2.869992494583129883e+00,2.507032454852158310e+00
2.872817039489746094e+00,2.503893077837595627e+00
2.874934434890747070e+00,2.502580583403180015e+00
2.877728939056396484e+00,2.466830309251583753e+00
2.879656076431274414e+00,2.504529655519682763e+00
2.881647109985351562e+00,2.509494723021354901e+00
2.883640527725219727e+00,2.509977520701589526e+00
2.885673046112060547e+00,2.516280116591467664e+00
2.887653827667236328e+00,2.501800954556578915e+00
2.889667987823486328e+00,2.516821326830545491e+00
2.891648292541503906e+00,2.512202562356300461e+00
2.893663167953491211e+00,2.522494497596561747e+00
2.895653963088989258e+00,2.517193259858281795e+00
2.897649288177490234e+00,2.525472346004527413e+00
2.899690389633178711e+00,2.527685466728862185e+00
2.901708602905273438e+00,2.511496843278031577e+00
2.903718709945678711e+00,2.531077567467399536e+00
2.905669212341308594e+00,2.525047960883135989e+00
2.907628536224365234e+00,2.535113398446249722e+00
2.909625291824340820e+00,2.579985568521686812e+00
2.911622524261474609e+00,2.588670562347240800e+00
2.913623094558715820e+00,2.603242707639063180e+00
2.915621280670166016e+00,2.611796571230479813e+00
2.917623043060302734e+00,2.623781278584155885e+00
2.919620990753173828e+00,2.629878834471563565e+00
2.921622037887573242e+00,2.642094807874537654e+00
2.923620939254760742e+00,2.649033385399983676e+00
2.925621271133422852e+00,2.657696921550860569e+00
2.927620887756347656e+00,2.662985642312245549e+00
2.929620504379272461e+00,2.671209892178760814e+00
2.931620121002197266e+00,2.676427683404408064e+00
2.933621168136596680e+00,2.683329902092206787e+00
2.935619592666625977e+00,2.686547957247252150e+00
2.937621116638183594e+00,2.691366993351816284e+00
2.939620733261108398e+00,2.694678031763795722e+00
2.941622972488403320e+00,2.698774063441045534e+00
2.943619489669799805e+00,2.696750485509691764e+00
2.945620059967041016e+00,2.700854265791686082e+00
2.947618484497070312e+00,2.702935660235364246e+00
2.949619054794311523e+00,2.704140866296394830e+00
2.951618432998657227e+00,2.705241764216633538e+00
2.953619480133056641e+00,2.704735124675646585e+00
2.955617189407348633e+00,2.705566609569383996e+00
2.957618951797485352e+00,2.705232823518851415e+00
2.959617376327514648e+00,2.705630386546896471e+00
2.961618185043334961e+00,2.704782808397151239e+00
2.963617086410522461e+00,2.703167522331181072e+00
2.965617895126342773e+00,2.702782476280030544e+00
2.967615842819213867e+00,2.700906717885341202e+00
2.969617843627929688e+00,2.698557698554718165e+00
2.971615552902221680e+00,2.696457230622438139e+00
2.973617315292358398e+00,2.693844758730501887e+00
2.975615024566650391e+00,2.691482030329946262e+00
2.977617263793945312e+00,2.688132844940763100e+00
2.979615688323974609e+00,2.685078702578389986e+00
2.981617212295532227e+00,2.681843362074299186e+00
2.983615398406982422e+00,2.676967105503929467e+00
2.985615968704223633e+00,2.673936805002308681e+00
2.987614631652832031e+00,2.670304497516691189e+00
2.989615917205810547e+00,2.666419466307099473e+00
2.991614103317260742e+00,2.662069518812837376e+00
2.993615388870239258e+00,2.658406216908242303e+00
2.995614290237426758e+00,2.653934675924143338e+00
2.997614622116088867e+00,2.649595457267219789e+00
2.999613046646118164e+00,2.645484524426999773e+00
3.001615047454833984e+00,2.641361670656403593e+00
3.003613710403442383e+00,2.635811285473261378e+00
3.005614995956420898e+00,2.631900028216842102e+00
3.007612705230712891e+00,2.627456501419127122e+00
3.009613752365112305e+00,2.623622134163634101e+00
3.011615514755249023e+00,2.619912340630571990e+00
3.013613700866699219e+00,2.614561631031230959e+00
3.015612840652465820e+00,2.610320760049910760e+00
3.017613410949707031e+00,2.605470133479849348e+00
3.019611835479736328e+00,2.602233004836202124e+00
3.021612644195556641e+00,2.597462248499661452e+00
3.023615598678588867e+00,2.593465160544533799e+00
3.025613069534301758e+00,2.586357305807746254e+00
3.027611494064331055e+00,2.583747218101885235e+00
3.029613256454467773e+00,2.580280611548496861e+00
3.031610727310180664e+00,2.576195904755103960e+00
3.033612728118896484e+00,2.573018380763337554e+00
3.035610437393188477e+00,2.569855757934541352e+00
3.037612199783325195e+00,2.565425344160240151e+00
3.039609909057617188e+00,2.563029237154631268e+00
3.041611433029174805e+00,2.558893270360621308e+00
3.043610572814941406e+00,2.556246227770594182e+00
3.045611619949340820e+00,2.553175396105694439e+00
3.047610521316528320e+00,2.549960321183243117e+00
3.049611330032348633e+00,2.547027176264188064e+00
3.051609516143798828e+00,2.545118635310963828e+00
3.053611040115356445e+00,2.541740243642359065e+00
3.055610418319702148e+00,2.539110486401377376e+00
3.057610750198364258e+00,2.537275855216485798e+00
3.059627294540405273e+00,2.536385361717386377e+00
3.061605930328369141e+00,2.532632056788451269e+00
3.063609600067138672e+00,2.529419366052075180e+00
3.065609455108642578e+00,2.529034916047443904e+00
3.067608594894409180e+00,2.527590099285852876e+00
3.069609642028808594e+00,2.526173892757164641e+00
3.071609020233154297e+00,2.523641291098748685e+00
3.073608636856079102e+00,2.524013224126484989e+00
3.075607538223266602e+00,2.522464695270621338e+00
3.077608346939086914e+00,2.520997228741315599e+00
3.079606771469116211e+00,2.520566287108217285e+00
3.081608057022094727e+00,2.519476118025317124e+00
3.083606958389282227e+00,2.518882455692584177e+00
3.085608005523681641e+00,2.518133821264961103e+00
3.087607622146606445e+00,2.518446149640816589e+00
3.089607715606689453e+00,2.517560424513867634e+00
3.091606855392456055e+00,2.516600193572067656e+00
3.093607425689697266e+00,2.516944708459938784e+00
3.095605611801147461e+00,2.516112031473163757e+00
3.097606897354125977e+00,2.514660658199865395e+00
3.099605798721313477e+00,2.514602841687541002e+00
3.101606130599975586e+00,2.514893712388719393e+00
3.103604793548583984e+00,2.515085639367775627e+00
3.105606794357299805e+00,2.515824141004579406e+00
3.107604742050170898e+00,2.516501249849945498e+00
3.109606742858886719e+00,2.516768278690371563e+00
3.111604928970336914e+00,2.516908349622291485e+00
3.113699913024902344e+00,2.517676653585035229e+00
3.115844964981079102e+00,2.517408432651571548e+00
3.119859457015991211e+00,2.517540754978746964e+00
3.123856306076049805e+00,2.529306713260020434e+00
3.127854585647583008e+00,2.537532155219573315e+00
3.131854534149169922e+00,2.544843857865793257e+00
3.135854244232177734e+00,2.552086419115831895e+00
3.139853954315185547e+00,2.558430738262026161e+00
3.143853664398193359e+00,2.563941784374926591e+00
3.147853612899780273e+00,2.569367595835637452e+00
3.151852607727050781e+00,2.572215506102502935e+00
3.155858993530273438e+00,2.575283953581327445e+00
3.159854173660278320e+00,2.577615687562905045e+00
3.163910388946533203e+00,2.579980800149536346e+00
3.167893648147583008e+00,2.569978543517415837e+00
3.171855688095092773e+00,2.577045271044405617e+00
3.175853252410888672e+00,2.577460715468014918e+00
3.179852485656738281e+00,2.578802416181852575e+00
3.183851957321166992e+00,2.578580090830337124e+00
3.187850236892700195e+00,2.578723141994851087e+00
3.191850423812866211e+00,2.577796885704622731e+00
3.195849895477294922e+00,2.577544161980648063e+00
3.199850082397460938e+00,2.575742313354290935e+00
3.203847885131835938e+00,2.574969241019396726e+00
3.207852602005004883e+00,2.573268720301236989e+00
3.211848974227905273e+00,2.571502634466008352e+00
3.215849161148071289e+00,2.570705720270361816e+00
3.220103263854980469e+00,2.565285273228320229e+00
3.224134922027587891e+00,2.570960232133892909e+00
3.228134155273437500e+00,2.571988412378837019e+00
3.232133865356445312e+00,2.571215936090461618e+00
3.236133098602294922e+00,2.570221730497089574e+00
3.240133047103881836e+00,2.568964668388923123e+00
3.244133472442626953e+00,2.568769761177272848e+00
3.248132944107055664e+00,2.568313785590384590e+00
3.252131938934326172e+00,2.567205139065401376e+00
3.256130933761596680e+00,2.564798303222453946e+00
3.260138750076293945e+00,2.563448853903872227e+00
3.264130592346191406e+00,2.558037943606131570e+00
3.268130302429199219e+00,2.560671873172744917e+00
3.272131443023681641e+00,2.558282322678842924e+00
3.276129722595214844e+00,2.557652897554981486e+00
3.280129194259643555e+00,2.555365867062314500e+00
3.284128189086914062e+00,2.555172151943701842e+00
3.288128376007080078e+00,2.552919096102606922e+00
3.292128562927246094e+00,2.552545374935314193e+00
3.296128034591674805e+00,2.550654715377654647e+00
3.300127983093261719e+00,2.549012011171819303e+00
3.304128885269165039e+00,2.548559611864043895e+00
3.308128118515014648e+00,2.547899788367723239e+00
3.312127351760864258e+00,2.546737497656046845e+00
3.316126346588134766e+00,2.546235626487210357e+00
3.320346117019653320e+00,2.541584079454431322e+00
3.324464559555053711e+00,2.542411392022537076e+00
3.328465223312377930e+00,2.544343178789994386e+00
3.332464456558227539e+00,2.546239202766323206e+00
3.336463451385498047e+00,2.546868031843665836e+00
3.340461969375610352e+00,2.548099463951523980e+00
3.344462871551513672e+00,2.545866077645549286e+00
3.348491907119750977e+00,2.548148339766066250e+00
3.352473258972167969e+00,2.500416934539906322e+00
3.356462001800537109e+00,2.545506661594707953e+00
3.360462427139282227e+00,2.545798128342405153e+00
3.364461660385131836e+00,2.547004526496473353e+00
3.368458271026611328e+00,2.548154896277773140e+00
3.372464656829833984e+00,2.547341292779599975e+00
3.376461982727050781e+00,2.548148339766066250e+00
3.380461215972900391e+00,2.548429077676424903e+00
3.384459257125854492e+00,2.549321955361599557e+00
3.388458728790283203e+00,2.549231952337259521e+00
3.392457962036132812e+00,2.549488252340347039e+00
3.396458864212036133e+00,2.550360268397363406e+00
3.400458574295043945e+00,2.549742764203878131e+00
3.404457092285156250e+00,2.550384706304634541e+00
3.408457517623901367e+00,2.550434774212214428e+00
3.412456989288330078e+00,2.550123637929396558e+00
3.416459560394287109e+00,2.548783129308596962e+00
3.420677900314331055e+00,2.546561067886479623e+00
3.424875259399414062e+00,2.551886743532031154e+00
3.429880142211914062e+00,2.546907966960426428e+00
3.434877634048461914e+00,2.546112244857817064e+00
3.439876794815063477e+00,2.544907038796786924e+00
3.444875001907348633e+00,2.544387882278905000e+00
3.449878692626953125e+00,2.543676202735448033e+00
3.454875230789184570e+00,2.543819253899961996e+00
3.459880113601684570e+00,2.542449538999740799e+00
3.464877367019653320e+00,2.577683040819530369e+00
3.469880104064941406e+00,2.539826338270466000e+00
3.474874734878540039e+00,2.578024575474807456e+00
3.479875564575195312e+00,2.577179381511137457e+00
3.484870910644531250e+00,2.577815363146705785e+00
3.489879608154296875e+00,2.577345678489884939e+00
3.494868278503417969e+00,2.577452966863270412e+00
3.499871015548706055e+00,2.577126929417482337e+00
3.504869699478149414e+00,2.578113386406109875e+00
3.509874582290649414e+00,2.537712161268253386e+00
3.514871120452880859e+00,2.577928611985279339e+00
3.519931316375732422e+00,2.575409123350277163e+00
3.524470329284667969e+00,2.530393902110326554e+00
3.528450727462768555e+00,2.574652144271390775e+00
3.532446622848510742e+00,2.576480814991094270e+00
3.536450624465942383e+00,2.575251767069311803e+00
3.540449619293212891e+00,2.578093716870989205e+00
3.544449090957641602e+00,2.540900414097358340e+00
3.548449993133544922e+00,2.541713421549012697e+00
3.552447080612182617e+00,2.542624180629751596e+00
3.556447267532348633e+00,2.544138734834043181e+00
3.560446262359619141e+00,2.544964259262592510e+00
3.564446449279785156e+00,2.547038501148045420e+00
3.568446159362792969e+00,2.546223109510315386e+00
3.572445631027221680e+00,2.547962969298716907e+00
3.576445341110229492e+00,2.548767632099107949e+00
3.580445289611816406e+00,2.549608653737146291e+00
3.584443569183349609e+00,2.551442092829000252e+00
3.588442802429199219e+00,2.552202052140480681e+00
3.592442274093627930e+00,2.552319473304685893e+00
3.596443176269531250e+00,2.553485936341993501e+00
3.600443124771118164e+00,2.553420967271443409e+00
3.604442119598388672e+00,2.554326957980031843e+00
3.608442544937133789e+00,2.554754323334017307e+00
3.612442255020141602e+00,2.555350369852825487e+00
3.616442203521728516e+00,2.555179900548446348e+00
3.620563983917236328e+00,2.552306360281272113e+00
3.624862909317016602e+00,2.557770318719186697e+00
3.629867315292358398e+00,2.555036253337413577e+00
3.634861230850219727e+00,2.554846710544432575e+00
3.639858722686767578e+00,2.554131454721862760e+00
3.644860982894897461e+00,2.554127878442749910e+00
3.649861812591552734e+00,2.578087160359282315e+00
3.654861927032470703e+00,2.533946935408942114e+00
3.659859895706176758e+00,2.528038922314515435e+00
3.664864301681518555e+00,2.522174420615961754e+00
3.669862747192382812e+00,2.520228328732053047e+00
3.674859046936035156e+00,2.518271508010805793e+00
3.679856777191162109e+00,2.516865434272937296e+00
3.684855461120605469e+00,2.516618671014150710e+00
3.689860582351684570e+00,2.515084447274738011e+00
3.694856643676757812e+00,2.516138853566510125e+00
3.699852943420410156e+00,2.516115011705757798e+00
3.704853773117065430e+00,2.516428532174650901e+00
3.709856510162353516e+00,2.517808379865691837e+00
3.714854478836059570e+00,2.519623937561981553e+00
3.719858407974243164e+00,2.521218958046312242e+00
3.724460601806640625e+00,2.519115509881438175e+00
3.728466272354125977e+00,2.523688974820253339e+00
3.732464313507080078e+00,2.577858874542578782e+00
3.736464023590087891e+00,2.544888561354703871e+00
3.740463733673095703e+00,2.550642198400759675e+00
3.744463443756103516e+00,2.554336494724332773e+00
3.748462200164794922e+00,2.559084601293158734e+00
3.752461910247802734e+00,2.563847012978436091e+00
3.756460905075073242e+00,2.567427464416916827e+00
3.760460376739501953e+00,2.569080897460090718e+00
3.764459848403930664e+00,2.571903177726647449e+00
3.768459796905517578e+00,2.613738490788756863e+00
3.772460460662841797e+00,2.613821937301390008e+00
3.776458263397216797e+00,2.616421892216431289e+00
3.780457258224487305e+00,2.617101385247872614e+00
3.784469127655029297e+00,2.578398296642100629e+00
3.788461208343505859e+00,2.578984210370089070e+00
3.792460203170776367e+00,2.578164050360209014e+00
3.796460151672363281e+00,2.616409971286055125e+00
3.800459623336791992e+00,2.615701868021711007e+00
3.804458856582641602e+00,2.615238143830078243e+00
3.808456659317016602e+00,2.614149166840215699e+00
3.812457799911499023e+00,2.612982107756389283e+00
3.816456794738769531e+00,2.572352596801828817e+00
3.820663213729858398e+00,2.570891090737711160e+00
3.824884414672851562e+00,2.571382829115727908e+00
3.829884290695190430e+00,2.564413853217822670e+00
3.834881782531738281e+00,2.562380738542167968e+00
3.839877843856811523e+00,2.560574717590179183e+00
3.844877958297729492e+00,2.556863135917560648e+00
3.849881887435913086e+00,2.556122250094682080e+00
3.854877471923828125e+00,2.553688592158388282e+00
3.859882354736328125e+00,2.550778693053566748e+00
3.864876031875610352e+00,2.547807997203826780e+00
3.869879722595214844e+00,2.546789353703183156e+00
3.874876499176025391e+00,2.544376557395047644e+00
3.879875183105468750e+00,2.543223803427672625e+00
3.884876966476440430e+00,2.542289202486181399e+00
3.889879465103149414e+00,2.541648452478462605e+00
3.894873380661010742e+00,2.541159098286521090e+00
3.899874448776245117e+00,2.540306155718106584e+00
3.904874563217163086e+00,2.539434139661090217e+00
3.909877300262451172e+00,2.577755162448306159e+00
3.914873123168945312e+00,2.576234647778826492e+00
3.919871568679809570e+00,2.576426574757882726e+00
3.924554109573364258e+00,2.536288802181339452e+00
3.928447008132934570e+00,2.541197841310243621e+00
3.932447671890258789e+00,2.539995019435288715e+00
3.936445713043212891e+00,2.540697758280963559e+00
3.940446376800537109e+00,2.541233008054853304e+00
3.944445610046386719e+00,2.541092341076414574e+00
3.948445320129394531e+00,2.541781370852156829e+00
3.952445268630981445e+00,2.543290560637779141e+00
3.956445217132568359e+00,2.543630903200018611e+00
3.960443496704101562e+00,2.543464606221271129e+00
3.964445114135742188e+00,2.543598716688002970e+00
3.968442440032958984e+00,2.543516462268407441e+00
3.972442388534545898e+00,2.544594710420931438e+00
3.976443290710449219e+00,2.545164530892912058e+00
3.980443000793457031e+00,2.544981544611637947e+00
3.984441518783569336e+00,2.544718092050324731e+00
3.988442420959472656e+00,2.546140259044201049e+00
3.992440700531005859e+00,2.545726602760148172e+00
3.996441364288330078e+00,2.546207612300826373e+00
4.000441074371337891e+00,2.547164863010032754e+00
4.004440784454345703e+00,2.547158306498325864e+00
4.008438825607299805e+00,2.547135656730611153e+00
4.012441635131835938e+00,2.546970551844901287e+00
4.016439914703369141e+00,2.546727364865227106e+00
4.020439863204956055e+00,2.546706503237068819e+00
4.024726867675781250e+00,2.544606035304788794e+00
4.029124498367309570e+00,2.534202639365510823e+00
4.034016132354736328e+00,2.511346639555291915e+00
4.039026975631713867e+00,2.536097471248802027e+00
4.044008970260620117e+00,2.490991650937992574e+00
4.048977851867675781e+00,2.484438119463696637e+00
4.053947210311889648e+00,2.481996116876139080e+00
4.058900117874145508e+00,2.482226190832399038e+00
4.063914775848388672e+00,2.478710708464468393e+00
4.068896293640136719e+00,2.481242118029846733e+00
4.073923349380493164e+00,2.484366593881439211e+00
4.078904628753662109e+00,2.485579548547214301e+00
4.083896875381469727e+00,2.487821279504451866e+00
4.088935613632202148e+00,2.489734588829826123e+00
4.093936681747436523e+00,2.493562399573612254e+00
4.098980426788330078e+00,2.493569552131837952e+00
4.104013681411743164e+00,2.534659210998917889e+00
4.109072685241699219e+00,2.486735282747183362e+00
4.114000082015991211e+00,2.538198535227600861e+00
4.118968486785888672e+00,2.503388822482683906e+00
4.123802661895751953e+00,2.503451407367158765e+00
4.125779151916503906e+00,2.507425845554571708e+00
4.128613233566284180e+00,2.460009748936861751e+00
4.130544424057006836e+00,2.455694372140690529e+00
4.132524013519287109e+00,2.491391002105594055e+00
4.134524345397949219e+00,2.494561373539134763e+00
4.136521577835083008e+00,2.496457397515463583e+00
4.138524055480957031e+00,2.499486505924046753e+00
4.140522003173828125e+00,2.500787675474605010e+00
4.142522096633911133e+00,2.503302395737456720e+00
4.144520759582519531e+00,2.504901588547419067e+00
4.146527528762817383e+00,2.507608831835845820e+00
4.148524999618530273e+00,2.506482303915298360e+00
4.150524616241455078e+00,2.511166633506611845e+00
4.152523756027221680e+00,2.512925566783614784e+00
4.154523849487304688e+00,2.516491117059125759e+00
4.156522750854492188e+00,2.517277302417433749e+00
4.158522367477416992e+00,2.520648541527812814e+00
4.160537481307983398e+00,2.521850171309730104e+00
4.162536382675170898e+00,2.524208131338135264e+00
4.164535760879516602e+00,2.526641789274429062e+00
4.166536092758178711e+00,2.528940740697472211e+00
4.168535709381103516e+00,2.531777326080480339e+00
4.170535326004028320e+00,2.534184161923427769e+00
4.172534465789794922e+00,2.535413209845210236e+00
4.174534559249877930e+00,2.537755672664126383e+00
4.176533937454223633e+00,2.540230457810217946e+00
4.178534269332885742e+00,2.542656367141767237e+00
4.180533409118652344e+00,2.544001048088198491e+00
4.182533979415893555e+00,2.543970053669220466e+00
4.184532880783081055e+00,2.546783393237995075e+00
4.186532735824584961e+00,2.548966711636389881e+00
4.188533544540405273e+00,2.550894922124734343e+00
4.190532684326171875e+00,2.552776640984611767e+00
4.192533254623413086e+00,2.553693956577057556e+00
4.194532871246337891e+00,2.555285996828794204e+00
4.196533203125000000e+00,2.557075328478256360e+00
4.198532104492187500e+00,2.558082051048523375e+00
4.200532436370849609e+00,2.560279078516850326e+00
4.202531337738037109e+00,2.560403652239281236e+00
4.204531908035278320e+00,2.561073608526421630e+00
4.206531524658203125e+00,2.562191195749186967e+00
4.208531379699707031e+00,2.563244409947921021e+00
4.210532188415527344e+00,2.564666576941797338e+00
4.212531328201293945e+00,2.565138049738174608e+00
4.214531660079956055e+00,2.565962978120205129e+00
4.216531038284301758e+00,2.567388125346675487e+00
4.218530654907226562e+00,2.568019338610093349e+00
4.220530748367309570e+00,2.569005795598720887e+00
4.222529888153076172e+00,2.568895526992741374e+00
4.224529981613159180e+00,2.569561907000768919e+00
4.226530075073242188e+00,2.569239445834093694e+00
4.228530168533325195e+00,2.569209643508153285e+00
4.230530738830566406e+00,2.569923707237685484e+00
4.232529640197753906e+00,2.570569225617554743e+00
4.234529733657836914e+00,2.569606014443160724e+00
4.236528873443603516e+00,2.569040962343330570e+00
4.238528966903686523e+00,2.570309945381873185e+00
4.240528821945190430e+00,2.570137687937937621e+00
4.242528676986694336e+00,2.569813438631705971e+00
4.244528532028198242e+00,2.569394417928983820e+00
4.246529340744018555e+00,2.568990298389231874e+00
4.248528242111206055e+00,2.568939634435133179e+00
4.250528097152709961e+00,2.568052717215146608e+00
4.252527952194213867e+00,2.568036027912619979e+00
4.254528284072875977e+00,2.568155833262900423e+00
4.256527662277221680e+00,2.567124672785362272e+00
4.258527755737304688e+00,2.567028113249315346e+00
4.260534286499023438e+00,2.566840954642409578e+00
4.262527227401733398e+00,2.562544651334840218e+00
4.264526367187500000e+00,2.564072318562545583e+00
4.266527414321899414e+00,2.563903041351204060e+00
4.268526077270507812e+00,2.562983341572683038e+00
4.270527362823486328e+00,2.562254376680180634e+00
4.272526741027832031e+00,2.561333484808621996e+00
4.274526596069335938e+00,2.561292357598824232e+00
4.276526212692260742e+00,2.560925788989757201e+00
4.278526544570922852e+00,2.560672469219263725e+00
4.280525684356689453e+00,2.559537596647452951e+00
4.282529830932617188e+00,2.559783763859720729e+00
4.284525394439697266e+00,2.557512230576542756e+00
4.286525011062622070e+00,2.558077282676372910e+00
4.288525104522705078e+00,2.558637566404052599e+00
4.290524244308471680e+00,2.557519383134768454e+00
4.292524576187133789e+00,2.556957311267532340e+00
4.294524431228637695e+00,2.556788034056190817e+00
4.296525001525878906e+00,2.556248015910150606e+00
4.298524141311645508e+00,2.555573887297378555e+00
4.300524234771728516e+00,2.555471963342662356e+00
4.302524566650390625e+00,2.555691308461583766e+00
4.304523468017578125e+00,2.553911513556422541e+00
4.306523561477661133e+00,2.553985423324754755e+00
4.308523416519165039e+00,2.553757733554570031e+00
4.310523748397827148e+00,2.552113241209178263e+00
4.312522888183593750e+00,2.552359408421446041e+00
4.314522981643676758e+00,2.551770514460863559e+00
4.316522598266601562e+00,2.551840251903564116e+00
4.318522930145263672e+00,2.550905650962072890e+00
4.320522308349609375e+00,2.550681537471001015e+00
4.322522401809692383e+00,2.550332254210979421e+00
4.324522256851196289e+00,2.548663323958316518e+00
4.326522111892700195e+00,2.549759453506404761e+00
4.328521251678466797e+00,2.550147479790148886e+00
4.330522298812866211e+00,2.548833197216176849e+00
4.332521677017211914e+00,2.548966711636389881e+00
4.334521293640136719e+00,2.548295563256211871e+00
4.336520910263061523e+00,2.547467654641587309e+00
4.338521718978881836e+00,2.548251455813820066e+00
4.340521097183227539e+00,2.547418778827045038e+00
4.342521190643310547e+00,2.547228043941026421e+00
4.344521522521972656e+00,2.545927470436986528e+00
4.346533536911010742e+00,2.544584577630111699e+00
4.348547220230102539e+00,2.542008464575822746e+00
4.350522518157958984e+00,2.533504072845467636e+00
4.352523565292358398e+00,2.536520664277155834e+00
4.354519128799438477e+00,2.536422316601552485e+00
4.356519699096679688e+00,2.536750142186896984e+00
4.358519554138183594e+00,2.536797825908401638e+00
4.360519886016845703e+00,2.536098067295320835e+00
4.362519502639770508e+00,2.536776368233724543e+00
4.364519119262695312e+00,2.537113134516851165e+00
4.366519451141357422e+00,2.537815277316007201e+00
4.368518590927124023e+00,2.533641163544793518e+00
4.370518922805786133e+00,2.537529174986979275e+00
4.372517585754394531e+00,2.538538877789840331e+00
4.374518871307373047e+00,2.538116876854524140e+00
4.376517534255981445e+00,2.538333241740851509e+00
4.378518104553222656e+00,2.538969819422938645e+00
4.380519151687622070e+00,2.539103929889670486e+00
4.382518291473388672e+00,2.539100949657076445e+00
4.384517431259155273e+00,2.538957898492562482e+00
4.386517524719238281e+00,2.539459769661398969e+00
4.388517379760742188e+00,2.540525500837027995e+00
4.390517234802246094e+00,2.540822928049913276e+00
4.392516851425170898e+00,2.540458743626921478e+00
4.394517898559570312e+00,2.541175787589047719e+00
4.396516561508178711e+00,2.541744415967990722e+00
4.398516416549682617e+00,2.542400663185198528e+00
4.400516033172607422e+00,2.542366092487107654e+00
4.402515649795532227e+00,2.542410199929499459e+00
4.404516458511352539e+00,2.542684381328151222e+00
4.406516075134277344e+00,2.544146483438787687e+00
4.408515453338623047e+00,2.544323509254873716e+00
4.410515308380126953e+00,2.544171517392577631e+00
4.412514448165893555e+00,2.543954556459731453e+00
4.414514780044555664e+00,2.545283740196673694e+00
4.416514396667480469e+00,2.545692628108576105e+00
4.418515205383300781e+00,2.545860713226880012e+00
4.420514583587646484e+00,2.546509807885862120e+00
4.422515392303466797e+00,2.545966809507227868e+00
4.424513816833496094e+00,2.546791141842739581e+00
4.426515102386474609e+00,2.547523086967836470e+00
4.428514242172241211e+00,2.547447389059947831e+00
4.430514097213745117e+00,2.548066085346470722e+00
4.432512998580932617e+00,2.547864621623113557e+00
4.434513568878173828e+00,2.548309868372663267e+00
4.436512708663940430e+00,2.548342054884678909e+00
4.438513040542602539e+00,2.547548120921626413e+00
4.440512895584106445e+00,2.547223275568875955e+00
4.442512035369873047e+00,2.547243541150515433e+00
4.444512128829956055e+00,2.546530669514020406e+00
4.446512699127197266e+00,2.546944325798073727e+00
4.448511838912963867e+00,2.547469442781143734e+00
4.450512409210205078e+00,2.547263210685636103e+00
4.452511548995971680e+00,2.547181552312559383e+00
4.454511880874633789e+00,2.546786969517107924e+00
4.456511259078979492e+00,2.547211950685018600e+00
4.458511590957641602e+00,2.547171419521739644e+00
4.460511684417724609e+00,2.546375697419130280e+00
4.462517023086547852e+00,2.542034690622650306e+00
4.464511156082153320e+00,2.540793125723972867e+00
4.466511487960815430e+00,2.541145985263107310e+00
4.468510389328002930e+00,2.541978662249882337e+00
4.470510959625244141e+00,2.542673056444293866e+00
4.472510099411010742e+00,2.542949622029020862e+00
4.474510431289672852e+00,2.542421524813356815e+00
4.476510286331176758e+00,2.542503779232952343e+00
4.478509902954101562e+00,2.543113534821693111e+00
4.480509519577026367e+00,2.542688553653782879e+00
4.482509374618530273e+00,2.543896739947407060e+00
4.484508991241455078e+00,2.544069593437861432e+00
4.486509084701538086e+00,2.542286818300106166e+00
4.488508939743041992e+00,2.543042009239436130e+00
4.490509510040283203e+00,2.542904918540110248e+00
4.492508411407470703e+00,2.542749946445220122e+00
4.494509220123291016e+00,2.543907468784745607e+00
4.496508836746215820e+00,2.543708389247463675e+00
4.498507976531982422e+00,2.544248407393503886e+00
4.500507831573486328e+00,2.543871705993617116e+00
4.502507448196411133e+00,2.544273441347293829e+00
4.504507303237915039e+00,2.543084924588790319e+00
4.506507873535156250e+00,2.543856208784128103e+00
4.508507251739501953e+00,2.543802564597435367e+00
4.510507106781005859e+00,2.543564145989912095e+00
4.512506961822509766e+00,2.544946973913547072e+00
4.514507055282592773e+00,2.545097773682805542e+00
4.516506910324096680e+00,2.545071547635977982e+00
4.518507003784179688e+00,2.545280759964079653e+00
4.520506143569946289e+00,2.544863527400913927e+00
4.522505760192871094e+00,2.545898860204083736e+00
4.524505376815795898e+00,2.544682329259196241e+00
4.526505708694458008e+00,2.544911807168937390e+00
4.528505086898803711e+00,2.546965187426232013e+00
4.530506134033203125e+00,2.546990817426540765e+00
4.532505512237548828e+00,2.546801870680078128e+00
4.534505128860473633e+00,2.546812599517416675e+00
4.536504983901977539e+00,2.546441858582717988e+00
4.538504838943481445e+00,2.546836441378169003e+00
4.540504217147827148e+00,2.546716039981369750e+00
4.542504310607910156e+00,2.547515934409610772e+00
4.544503927230834961e+00,2.547532623712137401e+00
4.546504735946655273e+00,2.547410434175781724e+00
4.548504590988159180e+00,2.547600573015281533e+00
4.550503492355346680e+00,2.546145027416351514e+00
4.552503347396850586e+00,2.546927040449028290e+00
4.554503917694091797e+00,2.546664183934233439e+00
4.556503534317016602e+00,2.547655409295011886e+00
4.558503627777099609e+00,2.548055952555650983e+00
4.560502767562866211e+00,2.544309204138422320e+00
4.562503099441528320e+00,2.545294469034012241e+00
4.564502477645874023e+00,2.545162146706836825e+00
4.566502094268798828e+00,2.546235626487210357e+00
4.568501710891723633e+00,2.545667594154786162e+00
4.570501804351806641e+00,2.546428745559304208e+00
4.572501897811889648e+00,2.546374505326092663e+00
4.574501752853393555e+00,2.546747034400347776e+00
4.576501846313476562e+00,2.546812003470897867e+00
4.578502178192138672e+00,2.547004526496473353e+00
4.580501556396484375e+00,2.547031348589819721e+00
4.582501649856567383e+00,2.547295993244170553e+00
4.584500789642333984e+00,2.546793526028814814e+00
4.586500644683837891e+00,2.547672694644057323e+00
4.588500738143920898e+00,2.545060818798639435e+00
4.590500116348266602e+00,2.547224467661913572e+00
4.592500209808349609e+00,2.547356193942570179e+00
4.594499588012695312e+00,2.547278111848606308e+00
4.596499919891357422e+00,2.547586863945348945e+00
4.598500490188598633e+00,2.548279470000204050e+00
4.600500345230102539e+00,2.548176353952450235e+00
4.602500200271606445e+00,2.548446959071989149e+00
4.604499578475952148e+00,2.546978300449645793e+00
4.606499433517456055e+00,2.547389572547623438e+00
4.608498573303222656e+00,2.547665542085831625e+00
4.610499620437622070e+00,2.547700112783922499e+00
4.612498521804809570e+00,2.547369903012502768e+00
4.614498615264892578e+00,2.547821110227240560e+00
4.616498231887817383e+00,2.548487490235268105e+00
4.618498325347900391e+00,2.547970717903461413e+00
4.620508432388305664e+00,2.547573154875416357e+00
4.622503519058227539e+00,2.545556729502287840e+00
4.624500036239624023e+00,2.546774452540212952e+00
4.626499414443969727e+00,2.546849554401582783e+00
4.628515958786010742e+00,2.546863263471515371e+00
4.630499124526977539e+00,2.547384208128954164e+00
4.632497787475585938e+00,2.546974724170532944e+00
4.634497880935668945e+00,2.547634547666853599e+00
4.636497020721435547e+00,2.547799652552563465e+00
4.638497352600097656e+00,2.548278277907166434e+00
4.640496969223022461e+00,2.547630375341221942e+00
4.642497062683105469e+00,2.548089927207223049e+00
4.644496679306030273e+00,2.548053568369575750e+00
4.646496772766113281e+00,2.548359936280243154e+00
4.648496627807617188e+00,2.547551101154220454e+00
4.650496006011962891e+00,2.548258012325526956e+00
4.652495861053466797e+00,2.547751372784540003e+00
4.654495954513549805e+00,2.548450535351101998e+00
4.656495809555053711e+00,2.547977274415168303e+00
4.658495664596557617e+00,2.548064893253433105e+00
4.660495042800903320e+00,2.547976678368649495e+00
4.662498235702514648e+00,2.547512954177016731e+00
4.664495706558227539e+00,2.545647328573146684e+00
4.666495084762573242e+00,2.546596234631089306e+00
4.668494462966918945e+00,2.546104496253072558e+00
4.670494794845581055e+00,2.547157114405288247e+00
4.672494173049926758e+00,2.546042507415116507e+00
4.674494028091430664e+00,2.547039097194564228e+00
4.676493644714355469e+00,2.546397155093807374e+00
4.678493976593017578e+00,2.546528285327945174e+00
4.680493354797363281e+00,2.546238606719804398e+00
4.682494163513183594e+00,2.545973962065453566e+00
4.684493064880371094e+00,2.544318740882723251e+00
4.686493873596191406e+00,2.545209830428341480e+00
4.688492774963378906e+00,2.545423811128593616e+00
4.690493106842041016e+00,2.543406789708946736e+00
4.692493200302124023e+00,2.545521562757678158e+00
4.694492101669311523e+00,2.545715873922809624e+00
4.696492195129394531e+00,2.543947403901505755e+00
4.698492765426635742e+00,2.545422022989037192e+00
4.700491905212402344e+00,2.545804088807593235e+00
4.702491998672485352e+00,2.545481627640918010e+00
4.704491615295410156e+00,2.544092839252094951e+00
4.706493139266967773e+00,2.544828956702823053e+00
4.708491325378417969e+00,2.544370000883340754e+00
4.710491657257080078e+00,2.543524806919670755e+00
4.712491512298583984e+00,2.544369404836821946e+00
4.714490890502929688e+00,2.544197743439405190e+00
4.716490507125854492e+00,2.543981974599596629e+00
4.718490600585937500e+00,2.543827002504706503e+00
4.720490932464599609e+00,2.542441194348477485e+00
4.722490310668945312e+00,2.542982404587555312e+00
4.724490165710449219e+00,2.542490070163019755e+00
4.726490259170532227e+00,2.543013399006533337e+00
4.728489637374877930e+00,2.543325131335870015e+00
4.730490207672119141e+00,2.542786305282867421e+00
4.732489347457885742e+00,2.542904918540110248e+00
4.734489679336547852e+00,2.543155258078009684e+00
4.736488819122314453e+00,2.543550436919979507e+00
4.738489151000976562e+00,2.543223803427672625e+00
4.740488529205322266e+00,2.543149297612821602e+00
4.742512464523315430e+00,2.542927568307824959e+00
4.744488477706909180e+00,2.539295856868726720e+00
4.746488571166992188e+00,2.542826240399627569e+00
4.748488187789916992e+00,2.542898362028403358e+00
4.750511169433593750e+00,2.543297117149486031e+00
4.752493143081665039e+00,2.531644407706786115e+00
4.754488468170166016e+00,2.539764945479028757e+00
4.756487846374511719e+00,2.540048663621981451e+00
4.758487939834594727e+00,2.540860478980598192e+00
4.760486841201782227e+00,2.541557853407603762e+00
4.762487411499023438e+00,2.541470234569338960e+00
4.764486551284790039e+00,2.539595668267687234e+00
4.766486883163452148e+00,2.541835015038849566e+00
4.768486738204956055e+00,2.541952436203054777e+00
4.770487070083618164e+00,2.541764085503111392e+00
4.772485971450805664e+00,2.541699712479080109e+00
4.774486303329467773e+00,2.541399901080119594e+00
4.776485681533813477e+00,2.542805974817988091e+00
4.778486013412475586e+00,2.542559211559201504e+00
4.780485391616821289e+00,2.543888395296143745e+00
4.782485485076904297e+00,2.543192809008694599e+00
4.784485578536987305e+00,2.541135256425768763e+00
4.786485195159912109e+00,2.543153469938453259e+00
4.788485050201416016e+00,2.544302647626715430e+00
4.790484666824340820e+00,2.543058102495443951e+00
4.792484521865844727e+00,2.543350165289659959e+00
4.794484615325927734e+00,2.543471162732978019e+00
4.796484470367431641e+00,2.544130390182779866e+00
4.798484802246093750e+00,2.544350927394738893e+00
4.800484180450439453e+00,2.544567292281066262e+00
4.802484035491943359e+00,2.545153802055573511e+00
4.804483890533447266e+00,2.544461196000718406e+00
4.806483507156372070e+00,2.545012539030615972e+00
4.808483123779296875e+00,2.545228307870424533e+00
4.810482740402221680e+00,2.546015089275251331e+00
4.812483787536621094e+00,2.546417420675446852e+00
4.814483642578125000e+00,2.546292846953015943e+00
4.816483020782470703e+00,2.546366160674829349e+00
4.818483114242553711e+00,2.545652692991815957e+00
4.820482254028320312e+00,2.547120755567640948e+00
4.822481870651245117e+00,2.547617858364326970e+00
4.824481725692749023e+00,2.546631401375698989e+00
4.826482295989990234e+00,2.547436064176090476e+00
4.828481435775756836e+00,2.546501463234598805e+00
4.830482006072998047e+00,2.547521298828280045e+00
4.832481622695922852e+00,2.547092145334738156e+00
4.834481239318847656e+00,2.546808427191785018e+00
4.836481094360351562e+00,2.546873992308853918e+00
4.838481664657592773e+00,2.547104066265114319e+00
4.840480327606201172e+00,2.547482555804557514e+00
4.842481136322021484e+00,2.546426361373228975e+00
4.844480514526367188e+00,2.546315496720730653e+00
4.846480369567871094e+00,2.547543352549475948e+00
4.848480463027954102e+00,2.547636931852928832e+00
4.850480318069458008e+00,2.547264998825192528e+00
4.852479219436645508e+00,2.547457521850767570e+00
4.854480266571044922e+00,2.547424143245714312e+00
4.856480121612548828e+00,2.547968333717386180e+00
4.858479976654052734e+00,2.547823494413315792e+00
4.860482215881347656e+00,2.547321027197960497e+00
4.862480878829956055e+00,2.547524875107392894e+00
4.864479064941406250e+00,2.544703786933873335e+00
4.866479158401489258e+00,2.545404141593472946e+00
4.868478775024414062e+00,2.544718688096843540e+00
4.870479106903076172e+00,2.545752232760456923e+00
4.872478008270263672e+00,2.545135920660009266e+00
4.874478340148925781e+00,2.545348113220704978e+00
4.876477479934692383e+00,2.545232480196056191e+00
4.878477811813354492e+00,2.546689813934542190e+00
4.880476951599121094e+00,2.545692032062057297e+00
4.882477760314941406e+00,2.546402519512476648e+00
4.884478092193603516e+00,2.545543616478874061e+00
4.886477231979370117e+00,2.545543616478874061e+00
4.888476848602294922e+00,2.545857732994285971e+00
4.890476942062377930e+00,2.546890681611380991e+00
4.892476320266723633e+00,2.545125787869189526e+00
4.894476413726806641e+00,2.547038501148045420e+00
4.896476030349731445e+00,2.547398513245405560e+00
4.898476600646972656e+00,2.546754783005092282e+00
4.900480508804321289e+00,2.547050422078421583e+00
4.902476549148559570e+00,2.546125953927749652e+00
4.904475688934326172e+00,2.546619480445322825e+00
4.906476020812988281e+00,2.546145623462870322e+00
4.908475399017333984e+00,2.547166055103070370e+00
4.910475254058837891e+00,2.547228639987545229e+00
4.912474870681762695e+00,2.546667760213346288e+00
4.914495944976806641e+00,2.546923464169915441e+00
4.916481971740722656e+00,2.537335459868366616e+00
4.918476104736328125e+00,2.540084426413109941e+00
4.920475006103515625e+00,2.540803258514792606e+00
4.922496318817138672e+00,2.540862863166673424e+00
4.924481153488159180e+00,2.525494399725723316e+00
4.926475048065185547e+00,2.535476986822722711e+00
4.928474664688110352e+00,2.536617223813202759e+00
4.930474042892456055e+00,2.537045185213707033e+00
4.933154582977294922e+00,2.538256947786444062e+00
4.935125827789306641e+00,2.484925089469562920e+00
4.937515497207641602e+00,2.469762262077601189e+00
4.939509391784667969e+00,2.460456187779449078e+00
4.941522359848022461e+00,2.451342040460352756e+00
4.943468093872070312e+00,2.466740902273762526e+00
4.945461750030517578e+00,2.488161026020172528e+00
4.947459459304809570e+00,2.492115794672464801e+00
4.949460268020629883e+00,2.495926916113724303e+00
4.951459646224975586e+00,2.500109970582720109e+00
4.953459024429321289e+00,2.503076494106828420e+00
4.955458641052246094e+00,2.506262958796376950e+00
4.957458734512329102e+00,2.509053052550918039e+00
4.959458351135253906e+00,2.512372435614160793e+00
4.961465120315551758e+00,2.514965834017495183e+00
4.963476657867431641e+00,2.518058719403591272e+00
4.965472936630249023e+00,2.520150246638089175e+00
4.967470645904541016e+00,2.524432244829207139e+00
4.969472169876098633e+00,2.527644935565583229e+00
4.971470594406127930e+00,2.530497018158080369e+00
4.973472833633422852e+00,2.533592883776770055e+00
4.975469589233398438e+00,2.533510629357174526e+00
4.977470874786376953e+00,2.537805144525187462e+00
4.979469060897827148e+00,2.539719049897080527e+00
4.981474637985229492e+00,2.542135422484328888e+00
4.983471155166625977e+00,2.544719880189881156e+00
4.985470771789550781e+00,2.546470468815620780e+00
4.987468481063842773e+00,2.548859423263004409e+00
4.989470005035400391e+00,2.550500339329283328e+00
4.991468667984008789e+00,2.552787369821950314e+00
4.993468999862670898e+00,2.553724354949516773e+00
4.995467901229858398e+00,2.555162019152882102e+00
4.997468709945678711e+00,2.557613558484740146e+00
4.999467372894287109e+00,2.559027976873871957e+00
5.001468181610107422e+00,2.559781975720164304e+00
5.003471612930297852e+00,2.561483092484842850e+00
5.005469799041748047e+00,2.562502928078523645e+00
5.007467985153198242e+00,2.563802309489525477e+00
5.009469032287597656e+00,2.563947744840114673e+00
5.011466741561889648e+00,2.565350242298870320e+00
5.013468027114868164e+00,2.566734262315542914e+00
5.015466690063476562e+00,2.567290969764109754e+00
5.017467737197875977e+00,2.568335839311580493e+00
5.019466161727905273e+00,2.567797013258577898e+00
5.021467447280883789e+00,2.569231697229349187e+00
5.023468017578125000e+00,2.568892546760147333e+00
5.025468111038208008e+00,2.568835326294341748e+00
5.027465820312500000e+00,2.569535680953941359e+00
5.029466390609741211e+00,2.569492765604587170e+00
5.031464338302612305e+00,2.570240207939172628e+00
5.033466100692749023e+00,2.570022054913288834e+00
5.035464763641357422e+00,2.570452996546387148e+00
5.037968397140502930e+00,2.569759198398494426e+00
5.039916276931762695e+00,2.557214803363657474e+00
5.042480468750000000e+00,2.536200587296555842e+00
5.044512510299682617e+00,2.551585143993514215e+00
5.046502828598022461e+00,2.532843653302628173e+00
5.048468589782714844e+00,2.537490431963256743e+00
5.050465345382690430e+00,2.545854156715173122e+00
5.052464723587036133e+00,2.546204632068232332e+00
5.054464578628540039e+00,2.547328179756186195e+00
5.056462764739990234e+00,2.547796672319969424e+00
5.058463573455810547e+00,2.549075192102812970e+00
5.060462474822998047e+00,2.550264900954354097e+00
5.062475442886352539e+00,2.550527757469148504e+00
5.064463615417480469e+00,2.547185724638191040e+00
5.066463232040405273e+00,2.550779289100085556e+00
5.068462848663330078e+00,2.550418084909687799e+00
5.070463418960571289e+00,2.551837271670970075e+00
5.072461843490600586e+00,2.550918763985486670e+00
5.074461936950683594e+00,2.552365964933152931e+00
5.076461553573608398e+00,2.553280300293004679e+00
5.078462123870849609e+00,2.554027146581071328e+00
5.080461502075195312e+00,2.554067677744350284e+00
5.082465410232543945e+00,2.554616040541653810e+00
5.084463119506835938e+00,2.554564780541036306e+00
5.086461067199707031e+00,2.554993337988059388e+00
5.088460445404052734e+00,2.556521005215764752e+00
5.090461492538452148e+00,2.555886811719752849e+00
5.092459917068481445e+00,2.556294507538617644e+00
5.094460248947143555e+00,2.556993670105179639e+00
5.096460103988647461e+00,2.555778927299848569e+00
5.098460435867309570e+00,2.557019300105488391e+00
5.100458383560180664e+00,2.557152814525701423e+00
5.102462053298950195e+00,2.556690282427106276e+00
5.104459047317504883e+00,2.557116455688054124e+00
5.106459856033325195e+00,2.557083077083000866e+00
5.108459472656250000e+00,2.557002610802961762e+00
5.110459566116333008e+00,2.557303018248441084e+00
5.112459182739257812e+00,2.557058639175729731e+00
5.114459037780761719e+00,2.557582564065762121e+00
5.116458415985107422e+00,2.557758397788810534e+00
5.118458747863769531e+00,2.556924528708997890e+00
5.120458126068115234e+00,2.557035393361496212e+00
5.123947858810424805e+00,2.555964893813716721e+00
5.125874280929565430e+00,2.516538204734111606e+00
5.128457546234130859e+00,2.530920807232952985e+00
5.130574941635131836e+00,2.537107174051663083e+00
5.132543087005615234e+00,2.487942276947769926e+00
5.134538173675537109e+00,2.480323610344363328e+00
5.136540412902832031e+00,2.474181350968045034e+00
5.138757705688476562e+00,2.468000348568004210e+00
5.141594886779785156e+00,2.445888810859776719e+00
5.143594264984130859e+00,2.439939670555552276e+00
5.145627498626708984e+00,2.431574753710598280e+00
5.147659063339233398e+00,2.429105332983175991e+00
5.149576187133789062e+00,2.415001680255136396e+00
5.151457071304321289e+00,2.451338464181239907e+00
5.153457164764404297e+00,2.464948590391706329e+00
5.155454635620117188e+00,2.467886503682911847e+00
5.157454967498779297e+00,2.475950417035867712e+00
5.159453630447387695e+00,2.480708060348994604e+00
5.161454439163208008e+00,2.487823663690527098e+00
5.163452625274658203e+00,2.492782770727011155e+00
5.165455818176269531e+00,2.498633563355632248e+00
5.167452096939086914e+00,2.502156198281788591e+00
5.169481039047241211e+00,2.509302199995779858e+00
5.171480894088745117e+00,2.489616571619102103e+00
5.173458814620971680e+00,2.500732243148355849e+00
5.175451040267944336e+00,2.512991131900683683e+00
5.177496671676635742e+00,2.520602049899345776e+00
5.179495334625244141e+00,2.492009102345598137e+00
5.181492328643798828e+00,2.501264512689651554e+00
5.183459997177124023e+00,2.498339116375341007e+00
5.185454845428466797e+00,2.522422972014304765e+00
5.187453031539916992e+00,2.525949183219573957e+00
5.189453840255737305e+00,2.531978789803837504e+00
5.191452980041503906e+00,2.536250655204135729e+00
5.193453550338745117e+00,2.541426127126947154e+00
5.195452451705932617e+00,2.544501727163997362e+00
5.197452545166015625e+00,2.548650806981421546e+00
5.199451684951782227e+00,2.553574151226777111e+00
5.201452970504760742e+00,2.557347721737351698e+00
5.203450918197631836e+00,2.561564154811400762e+00
5.205452203750610352e+00,2.564091392051147444e+00
5.207450389862060547e+00,2.566823073246845333e+00
5.209451436996459961e+00,2.569293090020786430e+00
5.211451530456542969e+00,2.572433659128386729e+00
5.213451862335205078e+00,2.575488397537278651e+00
5.215450763702392578e+00,2.577500650584775066e+00
5.217450380325317383e+00,2.580308625734880845e+00
5.219449520111083984e+00,2.582602808785773529e+00
5.221466302871704102e+00,2.584839771370860628e+00
5.223457813262939453e+00,2.580671618064835027e+00
5.225453376770019531e+00,2.586026499989807714e+00
5.227449417114257812e+00,2.587064813025571564e+00
5.229451179504394531e+00,2.588417242576747324e+00
5.231449365615844727e+00,2.590019415619303711e+00
5.233450651168823242e+00,2.590020607712341327e+00
5.235448837280273438e+00,2.591765235872892870e+00
5.237464189529418945e+00,2.591825436571292496e+00
5.239522695541381836e+00,2.582246372967526238e+00
5.241457223892211914e+00,2.545830314854420795e+00
5.243455886840820312e+00,2.575365015907885358e+00
5.245449304580688477e+00,2.577991196869754198e+00
5.247449636459350586e+00,2.578105041754846560e+00
5.249449014663696289e+00,2.579019377114698752e+00
5.251447439193725586e+00,2.578876325950184789e+00
5.253448724746704102e+00,2.580918381323621613e+00
5.255447626113891602e+00,2.579555818981626114e+00
5.257448196411132812e+00,2.581132362023873750e+00
5.259447097778320312e+00,2.580210874105796304e+00
5.261452913284301758e+00,2.581143090861212297e+00
5.263448953628540039e+00,2.575166532417122234e+00
5.265448093414306641e+00,2.580340812246896487e+00
5.267446279525756836e+00,2.577255079419026096e+00
5.269447803497314453e+00,2.579033682231150149e+00
5.271446704864501953e+00,2.578514525713268224e+00
5.273446798324584961e+00,2.578949043625479387e+00
5.275445699691772461e+00,2.578050205475116208e+00
5.277446031570434570e+00,2.577206203604483825e+00
5.279445648193359375e+00,2.577292034303192203e+00
5.281446218490600586e+00,2.577379057094938197e+00
5.283444404602050781e+00,2.577051827556112507e+00
5.285445690155029297e+00,2.576197096848141577e+00
5.287444591522216797e+00,2.574997851252299519e+00
5.289445877075195312e+00,2.575401970792051465e+00
5.291445016860961914e+00,2.574500152409094689e+00
5.293444395065307617e+00,2.573077389368699563e+00
5.295457124710083008e+00,2.572183915637006102e+00
5.297445058822631836e+00,2.571981855867130129e+00
5.299443721771240234e+00,2.569760390491532043e+00
5.301444530487060547e+00,2.570566841431479510e+00
5.303443431854248047e+00,2.569233485368905612e+00
5.305444478988647461e+00,2.568373986288784216e+00
5.307442665100097656e+00,2.566540547196930255e+00
5.309443950653076172e+00,2.567472763952346249e+00
5.311442852020263672e+00,2.565751977652547033e+00
5.313443899154663086e+00,2.565388985322592852e+00
5.315443038940429688e+00,2.563962049956566069e+00
5.317443609237670898e+00,2.562218613889052143e+00
5.319520235061645508e+00,2.562423653891522157e+00
5.321485996246337891e+00,2.518007459402973769e+00
5.323444366455078125e+00,2.537477914986361771e+00
5.325459957122802734e+00,2.544846242051868490e+00
5.327460289001464844e+00,2.539841239433436204e+00
5.329451322555541992e+00,2.535735671011885461e+00
5.331444263458251953e+00,2.527488175331136677e+00
5.333442449569702148e+00,2.534165088434825908e+00
5.335441589355468750e+00,2.526790800904131107e+00
5.337441682815551758e+00,2.523063125975504750e+00
5.339440584182739258e+00,2.520788016413213928e+00
5.341440916061401367e+00,2.518350186151288472e+00
5.343440532684326172e+00,2.509486974416610394e+00
5.345440626144409180e+00,2.497237026362064682e+00
5.347472906112670898e+00,2.493803798413729567e+00
5.349450588226318359e+00,2.460643942432873654e+00
5.351441383361816406e+00,2.465038593416046364e+00
5.353459835052490234e+00,2.473275956305975409e+00
5.355445623397827148e+00,2.452671820243813805e+00
5.357441186904907227e+00,2.470696863019092415e+00
5.359439611434936523e+00,2.465230520395102598e+00
5.361439228057861328e+00,2.374744698374831486e+00
