time_s,voltage_v
1.975536346435546875e-03,3.516674460968310847e-04
3.947019577026367188e-03,3.463030274275574120e-04
5.973339080810546875e-03,3.427267483147082789e-04
8.000373840332031250e-03,3.582239578037211712e-04
9.896278381347656250e-03,3.510713995780229048e-04
1.194524765014648438e-02,3.427267483147082789e-04
1.392650604248046875e-02,3.486872135027901313e-04
1.599645614624023438e-02,3.594160508413375308e-04
1.795864105224609375e-02,3.463030274275574120e-04
1.993346214294433594e-02,3.439188413523246385e-04
2.192640304565429688e-02,3.492832600215983654e-04
2.393078804016113281e-02,3.445148878711328183e-04
2.592825889587402344e-02,3.415346552770919192e-04
2.794098854064941406e-02,3.474951204651737717e-04
2.997469902038574219e-02,3.528595391344474985e-04
3.197741508483886719e-02,3.546476786908720380e-04
3.399610519409179688e-02,3.540516321720638582e-04
3.598499298095703125e-02,3.504753530592147250e-04
3.800582885742187500e-02,3.540516321720638582e-04
3.993177413940429688e-02,3.480911669839819515e-04
4.197692871093750000e-02,3.498793065404065452e-04
4.400682449340820312e-02,3.468990739463655919e-04
4.595017433166503906e-02,3.600120973601457107e-04
4.796552658081054688e-02,3.558397717284883977e-04
4.993963241577148438e-02,3.552437252096802178e-04
5.193233489990234375e-02,3.457069809087492322e-04
5.393052101135253906e-02,3.552437252096802178e-04
5.595278739929199219e-02,3.552437252096802178e-04
5.797266960144042969e-02,3.540516321720638582e-04
5.996990203857421875e-02,3.534555856532556784e-04
6.199622154235839844e-02,3.588200043225293510e-04
6.397128105163574219e-02,3.498793065404065452e-04
6.597161293029785156e-02,3.486872135027901313e-04
6.794595718383789062e-02,3.486872135027901313e-04
6.992650032043457031e-02,3.439188413523246385e-04
7.192587852478027344e-02,3.409386087582836852e-04
7.392406463623046875e-02,3.445148878711328183e-04
7.592630386352539062e-02,3.463030274275574120e-04
7.792544364929199219e-02,3.492832600215983654e-04
7.993006706237792969e-02,3.445148878711328183e-04
8.193111419677734375e-02,3.552437252096802178e-04
8.392930030822753906e-02,3.463030274275574120e-04
8.592724800109863281e-02,3.463030274275574120e-04
8.792996406555175781e-02,3.504753530592147250e-04
8.992648124694824219e-02,3.492832600215983654e-04
9.192919731140136719e-02,3.409386087582836852e-04
9.392714500427246094e-02,3.463030274275574120e-04
9.594035148620605469e-02,3.522634926156392645e-04
9.793353080749511719e-02,3.457069809087492322e-04
9.992957115173339844e-02,3.492832600215983654e-04
1.019270420074462891e-01,3.445148878711328183e-04
1.039314270019531250e-01,3.486872135027901313e-04
1.059277057647705078e-01,3.445148878711328183e-04
1.079287528991699219e-01,3.409386087582836852e-04
1.099288463592529297e-01,3.451109343899409982e-04
1.119306087493896484e-01,3.486872135027901313e-04
1.139278411865234375e-01,3.403425622394755054e-04
1.159303188323974609e-01,3.504753530592147250e-04
1.179277896881103516e-01,3.468990739463655919e-04
1.199293136596679688e-01,3.528595391344474985e-04
1.219279766082763672e-01,3.451109343899409982e-04
1.239292621612548828e-01,3.492832600215983654e-04
1.259269714355468750e-01,3.516674460968310847e-04
1.279296875000000000e-01,3.463030274275574120e-04
1.299281120300292969e-01,3.474951204651737717e-04
1.319301128387451172e-01,3.439188413523246385e-04
1.339282989501953125e-01,3.504753530592147250e-04
1.359307765960693359e-01,3.486872135027901313e-04
1.380052566528320312e-01,3.558397717284883977e-04
1.399576663970947266e-01,3.588200043225293510e-04
1.420333385467529297e-01,3.576279112849129914e-04
1.440007686614990234e-01,3.600120973601457107e-04
1.459553241729736328e-01,3.588200043225293510e-04
1.479635238647460938e-01,3.510713995780229048e-04
1.499321460723876953e-01,3.474951204651737717e-04
1.519334316253662109e-01,3.528595391344474985e-04
1.539282798767089844e-01,3.451109343899409982e-04
1.559278964996337891e-01,3.486872135027901313e-04
1.579284667968750000e-01,3.433227948335164587e-04
1.599292755126953125e-01,3.445148878711328183e-04
1.619415283203125000e-01,3.492832600215983654e-04
1.639282703399658203e-01,3.492832600215983654e-04
1.659286022186279297e-01,3.474951204651737717e-04
1.679279804229736328e-01,3.510713995780229048e-04
1.699333190917968750e-01,3.463030274275574120e-04
1.719961166381835938e-01,3.510713995780229048e-04
1.739675998687744141e-01,3.492832600215983654e-04
1.759328842163085938e-01,3.463030274275574120e-04
1.779294013977050781e-01,3.445148878711328183e-04
1.800208091735839844e-01,3.558397717284883977e-04
1.819736957550048828e-01,3.516674460968310847e-04
1.839628219604492188e-01,3.492832600215983654e-04
1.859884262084960938e-01,3.510713995780229048e-04
1.880202293395996094e-01,3.540516321720638582e-04
1.899015903472900391e-01,3.516674460968310847e-04
1.919398307800292969e-01,3.451109343899409982e-04
1.939299106597900391e-01,3.445148878711328183e-04
1.959292888641357422e-01,3.468990739463655919e-04
1.979286670684814453e-01,3.486872135027901313e-04
1.999285221099853516e-01,3.474951204651737717e-04
2.019281387329101562e-01,3.498793065404065452e-04
2.039301395416259766e-01,3.522634926156392645e-04
2.059268951416015625e-01,3.498793065404065452e-04
2.079298496246337891e-01,3.498793065404065452e-04
2.099268436431884766e-01,3.486872135027901313e-04
2.119293212890625000e-01,3.421307017959000990e-04
2.139272689819335938e-01,3.427267483147082789e-04
2.159285545349121094e-01,3.445148878711328183e-04
2.179274559020996094e-01,3.409386087582836852e-04
2.199280261993408203e-01,3.528595391344474985e-04
2.219288349151611328e-01,3.486872135027901313e-04
2.239289283752441406e-01,3.463030274275574120e-04
2.259283065795898438e-01,3.439188413523246385e-04
2.279291152954101562e-01,3.486872135027901313e-04
2.299325466156005859e-01,3.498793065404065452e-04
2.319288253784179688e-01,3.457069809087492322e-04
2.339286804199218750e-01,3.415346552770919192e-04
2.359285354614257812e-01,3.480911669839819515e-04
2.379274368286132812e-01,3.451109343899409982e-04
2.399289608001708984e-01,3.468990739463655919e-04
2.419266700744628906e-01,3.415346552770919192e-04
2.439291477203369141e-01,3.427267483147082789e-04
2.459268569946289062e-01,3.486872135027901313e-04
2.479293346405029297e-01,3.451109343899409982e-04
2.499275207519531250e-01,3.415346552770919192e-04
2.519288063049316406e-01,3.445148878711328183e-04
2.539272308349609375e-01,3.504753530592147250e-04
2.559285163879394531e-01,3.504753530592147250e-04
2.579271793365478516e-01,3.427267483147082789e-04
2.599294185638427734e-01,3.457069809087492322e-04
2.619276046752929688e-01,3.439188413523246385e-04
2.639808654785156250e-01,3.504753530592147250e-04
2.659626007080078125e-01,3.480911669839819515e-04
2.679314613342285156e-01,3.451109343899409982e-04
2.699317932128906250e-01,3.433227948335164587e-04
2.719292640686035156e-01,3.433227948335164587e-04
2.739288806915283203e-01,3.457069809087492322e-04
2.759292125701904297e-01,3.480911669839819515e-04
2.779285907745361328e-01,3.451109343899409982e-04
2.799286842346191406e-01,3.457069809087492322e-04
2.819285392761230469e-01,3.463030274275574120e-04
2.839293479919433594e-01,3.403425622394755054e-04
2.859277725219726562e-01,3.445148878711328183e-04
2.879297733306884766e-01,3.510713995780229048e-04
2.899279594421386719e-01,3.421307017959000990e-04
2.919294834136962891e-01,3.457069809087492322e-04
2.939274311065673828e-01,3.373623296454345520e-04
2.959294319152832031e-01,3.427267483147082789e-04
2.979276180267333984e-01,3.492832600215983654e-04
2.999293804168701172e-01,3.510713995780229048e-04
3.019273281097412109e-01,3.468990739463655919e-04
3.039295673370361328e-01,3.427267483147082789e-04
3.059270381927490234e-01,3.474951204651737717e-04
3.079288005828857422e-01,3.474951204651737717e-04
3.099274635314941406e-01,3.474951204651737717e-04
3.119285106658935547e-01,3.463030274275574120e-04
3.139274120330810547e-01,3.415346552770919192e-04
3.159298896789550781e-01,3.445148878711328183e-04
3.179271221160888672e-01,3.457069809087492322e-04
3.199298381805419922e-01,3.510713995780229048e-04
3.219275474548339844e-01,3.415346552770919192e-04
3.239293098449707031e-01,3.498793065404065452e-04
3.259267807006835938e-01,3.463030274275574120e-04
3.279294967651367188e-01,3.480911669839819515e-04
3.299272060394287109e-01,3.415346552770919192e-04
3.319294452667236328e-01,3.468990739463655919e-04
3.339269161224365234e-01,3.504753530592147250e-04
3.359291553497314453e-01,3.463030274275574120e-04
3.379271030426025391e-01,3.427267483147082789e-04
3.399293422698974609e-01,3.451109343899409982e-04
3.419270515441894531e-01,3.468990739463655919e-04
3.439297676086425781e-01,3.433227948335164587e-04
3.459272384643554688e-01,3.474951204651737717e-04
3.479287624359130859e-01,3.451109343899409982e-04
3.499312400817871094e-01,3.492832600215983654e-04
3.519320487976074219e-01,3.480911669839819515e-04
3.539285659790039062e-01,3.457069809087492322e-04
3.559279441833496094e-01,3.492832600215983654e-04
3.579246997833251953e-01,3.468990739463655919e-04
3.599278926849365234e-01,3.379583761642427860e-04
3.619301319122314453e-01,3.451109343899409982e-04
3.639278411865234375e-01,3.463030274275574120e-04
3.659284114837646484e-01,3.427267483147082789e-04
3.679280281066894531e-01,3.522634926156392645e-04
3.699283599853515625e-01,3.480911669839819515e-04
3.719279766082763672e-01,3.415346552770919192e-04
3.739278316497802734e-01,3.474951204651737717e-04
3.759286403656005859e-01,3.433227948335164587e-04
3.779270648956298828e-01,3.451109343899409982e-04
3.799288272857666016e-01,3.421307017959000990e-04
3.819265365600585938e-01,3.504753530592147250e-04
3.839290142059326172e-01,3.463030274275574120e-04
3.859274387359619141e-01,3.451109343899409982e-04
3.879275321960449219e-01,3.492832600215983654e-04
3.899273872375488281e-01,3.409386087582836852e-04
3.919274806976318359e-01,3.474951204651737717e-04
3.939275741577148438e-01,3.498793065404065452e-04
3.959281444549560547e-01,3.468990739463655919e-04
3.979265689849853516e-01,3.480911669839819515e-04
3.999273777008056641e-01,3.474951204651737717e-04
4.019272327423095703e-01,3.457069809087492322e-04
4.039285182952880859e-01,3.492832600215983654e-04
4.059269428253173828e-01,3.415346552770919192e-04
4.079298973083496094e-01,3.451109343899409982e-04
4.099264144897460938e-01,3.415346552770919192e-04
4.119281768798828125e-01,3.427267483147082789e-04
4.139266014099121094e-01,3.397465157206673255e-04
4.159286022186279297e-01,3.451109343899409982e-04
4.179263114929199219e-01,3.457069809087492322e-04
4.199273586273193359e-01,3.439188413523246385e-04
4.219255447387695312e-01,3.439188413523246385e-04
4.239535331726074219e-01,3.433227948335164587e-04
4.259278774261474609e-01,3.457069809087492322e-04
4.279296398162841797e-01,3.457069809087492322e-04
4.299330711364746094e-01,3.451109343899409982e-04
4.319367408752441406e-01,3.457069809087492322e-04
4.339270591735839844e-01,3.415346552770919192e-04
4.359292984008789062e-01,3.445148878711328183e-04
4.379272460937500000e-01,3.439188413523246385e-04
4.399287700653076172e-01,3.451109343899409982e-04
4.419271945953369141e-01,3.445148878711328183e-04
4.439282417297363281e-01,3.463030274275574120e-04
4.459271430969238281e-01,3.504753530592147250e-04
4.479284286499023438e-01,3.480911669839819515e-04
4.499270915985107422e-01,3.433227948335164587e-04
4.519293308258056641e-01,3.445148878711328183e-04
4.539268016815185547e-01,3.427267483147082789e-04
4.559288024902343750e-01,3.474951204651737717e-04
4.579277038574218750e-01,3.480911669839819515e-04
4.599330425262451172e-01,3.486872135027901313e-04
4.619259834289550781e-01,3.397465157206673255e-04
4.639272689819335938e-01,3.409386087582836852e-04
4.659280776977539062e-01,3.421307017959000990e-04
4.679286479949951172e-01,3.463030274275574120e-04
4.699268341064453125e-01,3.415346552770919192e-04
4.719288349151611328e-01,3.451109343899409982e-04
4.739270210266113281e-01,3.445148878711328183e-04
4.759280681610107422e-01,3.415346552770919192e-04
4.779274463653564453e-01,3.457069809087492322e-04
4.799282550811767578e-01,3.457069809087492322e-04
4.819266796112060547e-01,3.439188413523246385e-04
4.839272499084472656e-01,3.427267483147082789e-04
4.859273433685302734e-01,3.457069809087492322e-04
4.879279136657714844e-01,3.445148878711328183e-04
4.899268150329589844e-01,3.451109343899409982e-04
4.919290542602539062e-01,3.421307017959000990e-04
4.939277172088623047e-01,3.445148878711328183e-04
4.959294795989990234e-01,3.439188413523246385e-04
4.979262351989746094e-01,3.415346552770919192e-04
4.999282360076904297e-01,3.468990739463655919e-04
5.019266605377197266e-01,3.421307017959000990e-04
5.039277076721191406e-01,3.439188413523246385e-04
5.059275627136230469e-01,3.427267483147082789e-04
5.079278945922851562e-01,3.492832600215983654e-04
5.099267959594726562e-01,3.433227948335164587e-04
5.119280815124511719e-01,3.397465157206673255e-04
5.139269828796386719e-01,3.463030274275574120e-04
5.159289836883544922e-01,3.427267483147082789e-04
5.179274082183837891e-01,3.463030274275574120e-04
5.199289321899414062e-01,3.480911669839819515e-04
5.219264030456542969e-01,3.528595391344474985e-04
5.239272117614746094e-01,3.403425622394755054e-04
5.259280204772949219e-01,3.463030274275574120e-04
5.279273986816406250e-01,3.468990739463655919e-04
5.299267768859863281e-01,3.498793065404065452e-04
5.319280624389648438e-01,3.457069809087492322e-04
5.339267253875732422e-01,3.439188413523246385e-04
5.359287261962890625e-01,3.397465157206673255e-04
5.379269123077392578e-01,3.403425622394755054e-04
5.399286746978759766e-01,3.427267483147082789e-04
5.419270992279052734e-01,3.457069809087492322e-04
5.439279079437255859e-01,3.522634926156392645e-04
5.459275245666503906e-01,3.665686090670357972e-04
5.479290485382080078e-01,4.017353536767188948e-04
5.499293804168701172e-01,4.291534935418956005e-04
5.519311428070068359e-01,4.547834938506476582e-04
5.539274215698242188e-01,4.678965172644278313e-04
5.559277534484863281e-01,4.851818663098652631e-04
5.579278469085693359e-01,4.947186106107963029e-04
5.599279403686523438e-01,5.054474479493436482e-04
5.619289875030517578e-01,5.114079131374255549e-04
5.639288425445556641e-01,5.257130295888220875e-04
5.659303665161132812e-01,5.394220995214104404e-04
5.679295063018798828e-01,5.453825647094922386e-04
5.699262619018554688e-01,5.555153555292315125e-04
5.719282627105712891e-01,5.561114020480396923e-04
5.739274024963378906e-01,5.620718672361215990e-04
5.759279727935791016e-01,5.793572162815590308e-04
5.779271125793457031e-01,5.793572162815590308e-04
5.799295902252197266e-01,5.877018675448736568e-04
5.819268226623535156e-01,6.031990770338865491e-04
5.839278697967529297e-01,5.996227979210374702e-04
5.859284400939941406e-01,6.031990770338865491e-04
5.879287719726562500e-01,4.601479125199213851e-04
5.899267196655273438e-01,6.186962865228994414e-04
5.919284820556640625e-01,6.204844260793239809e-04
5.939269065856933594e-01,6.306172168990632548e-04
5.959286689758300781e-01,6.300211703802550750e-04
5.979270935058593750e-01,6.401539611999942404e-04
5.999295711517333984e-01,6.425381472752269597e-04
6.019268035888671875e-01,6.437302403128433194e-04
6.039285659790039062e-01,6.544590776513907731e-04
6.059272289276123047e-01,6.562472172078153126e-04
6.079287528991699219e-01,6.657839615087462982e-04
6.099269390106201172e-01,6.639958219523217587e-04
6.119291782379150391e-01,6.657839615087462982e-04
6.139268875122070312e-01,6.741286127720609242e-04
6.159284114837646484e-01,6.788969849225264712e-04
6.179263591766357422e-01,6.818772175165673704e-04
6.199283599853515625e-01,6.818772175165673704e-04
6.219274997711181641e-01,6.902218687798819963e-04
6.239278316497802734e-01,6.985665200431967307e-04
6.259281635284423828e-01,7.021427991560458097e-04
6.279289722442626953e-01,7.081032643441277164e-04
6.299273967742919922e-01,7.081032643441277164e-04
6.319282054901123047e-01,7.134676830134014432e-04
6.339273452758789062e-01,7.104874504193604357e-04
6.359288692474365234e-01,7.140637295322096231e-04
6.379306316375732422e-01,7.218123342767160692e-04
6.399290561676025391e-01,7.212162877579078894e-04
6.419267654418945312e-01,7.307530320588388750e-04
6.439285278320312500e-01,7.265807064271815078e-04
6.459271907806396484e-01,7.337332646528797742e-04
6.479289531707763672e-01,7.420779159161944001e-04
6.499264240264892578e-01,7.492304741418926665e-04
6.519284248352050781e-01,7.474423345854681270e-04
6.539270877838134766e-01,7.462502415478517673e-04
6.559288501739501953e-01,7.569790788863991126e-04
6.579270362854003906e-01,7.611514045180564798e-04
6.599280834197998047e-01,7.581711719240154723e-04
6.619269847869873047e-01,6.198883795605158011e-04
6.639287471771240234e-01,7.748604744506448327e-04
6.660280227661132812e-01,7.700921023001792856e-04
6.687889099121093750e-01,7.832051257139594587e-04
6.707870960235595703e-01,7.796288466011102713e-04
6.727852821350097656e-01,7.808209396387266309e-04
6.747858524322509766e-01,7.790328000823020915e-04
6.767840385437011719e-01,7.843972187515758183e-04
6.787943840026855469e-01,7.808209396387266309e-04
6.807832717895507812e-01,7.897616374208495452e-04
6.827850341796875000e-01,7.909537304584659048e-04
6.847834587097167969e-01,7.969141956465477031e-04
6.867854595184326172e-01,7.969141956465477031e-04
6.887829303741455078e-01,8.046628003910541492e-04
6.907846927642822266e-01,8.052588469098624375e-04
6.927828788757324219e-01,8.141995446919852433e-04
6.947846412658691406e-01,8.237362889929162289e-04
6.967825889587402344e-01,8.171797772860261424e-04
6.987833976745605469e-01,8.213521029176835096e-04
7.007820606231689453e-01,8.153916377296016029e-04
7.027831077575683594e-01,8.326769867750390347e-04
7.047815322875976562e-01,8.422137310759700204e-04
7.067828178405761719e-01,8.380414054443127616e-04
7.087812423706054688e-01,8.440018706323946683e-04
7.107834815979003906e-01,8.457900101888192078e-04
7.127807140350341797e-01,8.517504753769011144e-04
7.147827148437500000e-01,8.487702427828601069e-04
7.167811393737792969e-01,8.577109405649829127e-04
7.187821865081787109e-01,8.571148940461747329e-04
7.207798957824707031e-01,8.648634987906811790e-04
7.227814197540283203e-01,8.672476848659140067e-04
7.247803211212158203e-01,8.749962896104204529e-04
7.267820835113525391e-01,8.738041965728040933e-04
7.287790775299072266e-01,8.744002430916122731e-04
7.307808399200439453e-01,8.749962896104204529e-04
7.327795028686523438e-01,8.821488478361187192e-04
7.347807884216308594e-01,8.863211734677759780e-04
7.367794513702392578e-01,8.934737316934742444e-04
7.387802600860595703e-01,8.928776851746660645e-04
7.407786846160888672e-01,8.988381503627479712e-04
7.427794933319091797e-01,9.012223364379806905e-04
7.447781562805175781e-01,9.053946620696380577e-04
7.467799186706542969e-01,9.095669877012953165e-04
7.487778663635253906e-01,9.185076854834181223e-04
7.507817745208740234e-01,9.125472202953363240e-04
7.527780532836914062e-01,9.238721041526918492e-04
7.547795772552490234e-01,9.256602437091163886e-04
7.567782402038574219e-01,9.286404763031573962e-04
7.587788105010986328e-01,9.369851275664720222e-04
7.607772350311279297e-01,9.363890810476638423e-04
7.627768516540527344e-01,9.369851275664720222e-04
7.647774219512939453e-01,9.375811740852802020e-04
7.667775154113769531e-01,9.405614066793211011e-04
7.687776088714599609e-01,9.530783835742930943e-04
7.707772254943847656e-01,9.578467557247586413e-04
7.727775573730468750e-01,9.626151278752240800e-04
7.747778892517089844e-01,9.632111743940322598e-04
7.767767906188964844e-01,9.667874535068814472e-04
7.787783145904541016e-01,9.685755930633059866e-04
7.807762622833251953e-01,9.727479186949633538e-04
7.827770709991455078e-01,9.810925699582778714e-04
7.847754955291748047e-01,9.828807095147024109e-04
7.867765426635742188e-01,9.822846629958942311e-04
7.887752056121826172e-01,9.971858259660989435e-04
7.907764911651611328e-01,9.995700120413318797e-04
7.927753925323486328e-01,9.894372212215926058e-04
7.947762012481689453e-01,1.006722570267030038e-03
7.967743873596191406e-01,9.924174538156335049e-04
7.987756729125976562e-01,1.010894895898687296e-03
8.007748126983642578e-01,1.007914663304646397e-03
8.027753829956054688e-01,1.026392105387700189e-03
8.047740459442138672e-01,1.025200012350083829e-03
8.067746162414550781e-01,1.035928849688631283e-03
8.087730407714843750e-01,1.044273500951945800e-03
8.107750415802001953e-01,1.045465593989562377e-03
8.127727508544921875e-01,1.049041873102411456e-03
8.147740364074707031e-01,1.061558849997383449e-03
8.167734146118164062e-01,1.073479780373547045e-03
8.187742233276367188e-01,1.074075826892355225e-03
8.207731246948242188e-01,1.078248152524012701e-03
8.227734565734863281e-01,1.083612571193286319e-03
8.247725963592529297e-01,1.078844199042820881e-03
8.267736434936523438e-01,1.108050478464422126e-03
8.287718296051025391e-01,1.116991176246544823e-03
8.307871818542480469e-01,1.128316060103900457e-03
8.327720165252685547e-01,1.132488385735557716e-03
8.347775936126708984e-01,1.151561874337419687e-03
8.367712497711181641e-01,1.183152339834253868e-03
8.387801647186279297e-01,6.762207360530776701e-02
8.407714366912841797e-01,1.798951840275745395e-01
8.427801132202148438e-01,2.854043585544059902e-01
8.447716236114501953e-01,3.903437126092568210e-01
8.467793464660644531e-01,4.946107261908920250e-01
8.487703800201416016e-01,5.971569534727279027e-01
8.507783412933349609e-01,6.995923161020656256e-01
8.527705669403076172e-01,7.993424891641722763e-01
8.547780513763427734e-01,8.987499354779643346e-01
8.567707538604736328e-01,9.958190912984717924e-01
8.588032722473144531e-01,1.091351639193491874e+00
8.607740402221679688e-01,1.169234057573563801e+00
8.627827167510986328e-01,1.268890055285698759e+00
8.647701740264892578e-01,1.359871788009618276e+00
8.667781352996826172e-01,1.447037630920127826e+00
8.687689304351806641e-01,1.532820049860483369e+00
8.708007335662841797e-01,1.616166426678469881e+00
8.727691173553466797e-01,1.696850859743459283e+00
8.747761249542236328e-01,1.772013517858209264e+00
8.767683506011962891e-01,1.848951202505970226e+00
8.787779808044433594e-01,1.922728052464491411e+00
8.807721138000488281e-01,1.994174360534472612e+00
8.827760219573974609e-01,2.062896139966981401e+00
8.847682476043701172e-01,2.129741564958282041e+00
8.867754936218261719e-01,2.193160914559473262e+00
8.887684345245361328e-01,2.253382474587258599e+00
8.907761573791503906e-01,2.311526216450478621e+00
8.927671909332275391e-01,2.367299481308398512e+00
8.947715759277343750e-01,2.421208908702004781e+00
8.967664241790771484e-01,2.470391091154943819e+00
8.987736701965332031e-01,2.519544067328461256e+00
9.007663726806640625e-01,2.565739460675652062e+00
9.027736186981201172e-01,2.608166051884418746e+00
9.047663211822509766e-01,2.649322467961605643e+00
9.067733287811279297e-01,2.687098704230630908e+00
9.087655544281005859e-01,2.723155346292894574e+00
9.107732772827148438e-01,2.756292552506035776e+00
9.127655029296875000e-01,2.787970040794615745e+00
9.147725105285644531e-01,2.816837169747015146e+00
9.167647361755371094e-01,2.842198949122303642e+00
9.187731742858886719e-01,2.866793020581367202e+00
9.207649230957031250e-01,2.888278113398326852e+00
9.227721691131591797e-01,2.908789862250073188e+00
9.247651100158691406e-01,2.927782288525377474e+00
9.267721176147460938e-01,2.943461888249145453e+00
9.287645816802978516e-01,2.956918830504278173e+00
9.307713508605957031e-01,2.969148512977184406e+00
9.327635765075683594e-01,2.979725954499954366e+00
9.347712993621826172e-01,2.988951562518067817e+00
9.367632865905761719e-01,2.995569467016395038e+00
9.387707710266113281e-01,3.000340819399454517e+00
9.407634735107421875e-01,3.004267573865362806e+00
9.427709579467773438e-01,3.007017136456624939e+00
9.447638988494873047e-01,3.008921505084217074e+00
9.467699527740478516e-01,3.006857992036103155e+00
9.487626552581787109e-01,3.004761696429454787e+00
9.507763385772705078e-01,3.001773715230669382e+00
9.527635574340820312e-01,2.992360948605650606e+00
9.547722339630126953e-01,2.991394757198662546e+00
9.567618370056152344e-01,2.985648868757351693e+00
9.587721824645996094e-01,2.977174875399455356e+00
9.607617855072021484e-01,2.969231959489817552e+00
9.627709388732910156e-01,2.959744687049947753e+00
9.647614955902099609e-01,2.950032109025968019e+00
9.667711257934570312e-01,2.939664475877818539e+00
9.687619209289550781e-01,2.927813282944355500e+00
9.707696437835693359e-01,2.917064180024168341e+00
9.727611541748046875e-01,2.904141891496407002e+00
9.747684001922607422e-01,2.891704784834955522e+00
9.767601490020751953e-01,2.879038200263762448e+00
9.787793159484863281e-01,2.864133461014445103e+00
9.807615280151367188e-01,2.849899870145305325e+00
9.827687740325927734e-01,2.835271696480714976e+00
9.847607612609863281e-01,2.820386030719999049e+00
9.867680072784423828e-01,2.805203533792917092e+00
9.887604713439941406e-01,2.789947127097502477e+00
9.907681941986083984e-01,2.774588796447372108e+00
9.927597045898437500e-01,2.759436101846230116e+00
9.947686195373535156e-01,2.743441789560531419e+00
9.967591762542724609e-01,2.727857557279772305e+00
9.987666606903076172e-01,2.711834634761170815e+00
1.000759363174438477e+00,2.696176492712079487e+00
1.002767801284790039e+00,2.681164465089376669e+00
1.004758119583129883e+00,2.666014750720828719e+00
1.006766080856323242e+00,2.650434094719182898e+00
1.008759260177612305e+00,2.634922580113718382e+00
1.010767459869384766e+00,2.619598820161678887e+00
1.012758493423461914e+00,2.605456424409916760e+00
1.014767646789550781e+00,2.590550493067561799e+00
1.016758441925048828e+00,2.576613733364788494e+00
1.018762588500976562e+00,2.562591739009826064e+00
1.020756959915161133e+00,2.549034660939534014e+00
1.022764682769775391e+00,2.535685603104305574e+00
1.024756669998168945e+00,2.522639336900632134e+00
1.026764631271362305e+00,2.510105670703133285e+00
1.028756618499755859e+00,2.496844231706170092e+00
1.030763864517211914e+00,2.485457359010858625e+00
1.032756090164184570e+00,2.474161681432924365e+00
1.034764289855957031e+00,2.462701495015799491e+00
1.036756515502929688e+00,2.451975041863327043e+00
1.038764476776123047e+00,2.440615587307880752e+00
1.040755033493041992e+00,2.430192521833482111e+00
1.042754411697387695e+00,2.421368649169045373e+00
1.044755935668945312e+00,2.412123371615811696e+00
1.046763181686401367e+00,2.403533745233267016e+00
1.048754930496215820e+00,2.393228696969592395e+00
1.050754070281982422e+00,2.385559962458605909e+00
1.052754402160644531e+00,2.378424689581953189e+00
1.054754018783569336e+00,2.370836421351006251e+00
1.056756973266601562e+00,2.364534421507647366e+00
1.058754205703735352e+00,2.357788963054294751e+00
1.060754060745239258e+00,2.351706308329857276e+00
1.062752962112426758e+00,2.346711438502244729e+00
1.064753293991088867e+00,2.341737430302790468e+00
1.066752672195434570e+00,2.336675207218552597e+00
1.068753004074096680e+00,2.331090251337319952e+00
1.070753097534179688e+00,2.327809611297799286e+00
1.072753190994262695e+00,2.323679008922458600e+00
1.074752807617187500e+00,2.320058622367217716e+00
1.076753377914428711e+00,2.317692913734068050e+00
1.078752040863037109e+00,2.313710130895391792e+00
1.080753087997436523e+00,2.311889208780432803e+00
1.082751512527465820e+00,2.309727944103234343e+00
1.084751844406127930e+00,2.308536447112136791e+00
1.086750745773315430e+00,2.306378758714051180e+00
1.088751792907714844e+00,2.304852879625902240e+00
1.090751171112060547e+00,2.304292595898222551e+00
1.092751741409301758e+00,2.302874005183459083e+00
1.094750881195068359e+00,2.302907383788512341e+00
1.096752405166625977e+00,2.300395643758254671e+00
1.098750829696655273e+00,2.300935065857776074e+00
1.100751399993896484e+00,2.301112687720380912e+00
1.102750062942504883e+00,2.302444255643398385e+00
1.104750871658325195e+00,2.304035699848616225e+00
1.106750726699829102e+00,2.304718769159170400e+00
1.108750581741333008e+00,2.304370081945667614e+00
1.110753297805786133e+00,2.306322134294764403e+00
1.112750053405761719e+00,2.308255113155259330e+00
1.114748954772949219e+00,2.309958018059494300e+00
1.116749048233032227e+00,2.311712182964346773e+00
1.118749141693115234e+00,2.314047493225037222e+00
1.120748996734619141e+00,2.316468634184436048e+00
1.122748851776123047e+00,2.318400420951893359e+00
1.124748706817626953e+00,2.320516982140181206e+00
1.126748323440551758e+00,2.323621788456653015e+00
1.128748178482055664e+00,2.325222769406171786e+00
1.130747318267822266e+00,2.328189888976799349e+00
1.132747411727905273e+00,2.331417480876145643e+00
1.134747028350830078e+00,2.334342281143937381e+00
1.136747598648071289e+00,2.336091081630120581e+00
1.138751745223999023e+00,2.339883725629297029e+00
1.140748023986816406e+00,2.342530172172805347e+00
1.142747163772583008e+00,2.344964426155617954e+00
1.144748687744140625e+00,2.348742765038343006e+00
1.146746397018432617e+00,2.350420635988788032e+00
1.148746967315673828e+00,2.352763098807704178e+00
1.150749206542968750e+00,2.356687469087537234e+00
1.152746677398681641e+00,2.357893867241604990e+00
1.154745817184448242e+00,2.362721844043951691e+00
1.156746387481689453e+00,2.365463061983950510e+00
1.158745288848876953e+00,2.369299217378999955e+00
1.160746574401855469e+00,2.371101066005357083e+00
1.162745237350463867e+00,2.374486014185668736e+00
1.164746522903442383e+00,2.377407834220866434e+00
1.166744709014892578e+00,2.380645558911032467e+00
1.168745756149291992e+00,2.382475421723773579e+00
1.170744657516479492e+00,2.385394261526377235e+00
1.172745227813720703e+00,2.388632582263062076e+00
1.174744606018066406e+00,2.392233299283182735e+00
1.176744222640991211e+00,2.394786762569756977e+00
1.178744077682495117e+00,2.397812890745746106e+00
1.180743932723999023e+00,2.400049853330833205e+00
1.182744264602661133e+00,2.402510929406992179e+00
1.184744596481323242e+00,2.405575800606703840e+00
1.186743736267089844e+00,2.407757330865541778e+00
1.188743591308593750e+00,2.409208108092320888e+00
1.190743207931518555e+00,2.412023831847170730e+00
1.192743301391601562e+00,2.415183474443372891e+00
1.194742441177368164e+00,2.417157580513665582e+00
1.196742773056030273e+00,2.418809225417283049e+00
1.198742151260375977e+00,2.421352555913037552e+00
1.200742244720458984e+00,2.421488454519325817e+00
1.202742099761962891e+00,2.423718264546187662e+00
1.204742908477783203e+00,2.425685814104773463e+00
1.206742048263549805e+00,2.427884033666138031e+00
1.208741903305053711e+00,2.428905657399375251e+00
1.210741758346557617e+00,2.430614522768798302e+00
1.212741613388061523e+00,2.432925395122217616e+00
1.214741230010986328e+00,2.433035067681678321e+00
1.216741085052490234e+00,2.435156993288635441e+00
1.218740463256835938e+00,2.436304978883859995e+00
1.220740795135498047e+00,2.436710290516649557e+00
1.222740650177001953e+00,2.438542537515465902e+00
1.224740266799926758e+00,2.439062886126385443e+00
1.226740360260009766e+00,2.441112094058047965e+00
1.228740453720092773e+00,2.440209679628572381e+00
1.230740070343017578e+00,2.441748075693616293e+00
1.232819318771362305e+00,2.442705922449341038e+00
1.234741449356079102e+00,2.437878541693513590e+00
1.236741304397583008e+00,2.442385249422222238e+00
1.238739490509033203e+00,2.443313889898525382e+00
1.240739822387695312e+00,2.443267994316577152e+00
1.242739200592041016e+00,2.444057159907479182e+00
1.244738817214965820e+00,2.443825297811662800e+00
1.246738910675048828e+00,2.444154911536563723e+00
1.248738765716552734e+00,2.444021993162869499e+00
1.250738143920898438e+00,2.445431643179850845e+00
1.252738714218139648e+00,2.445573502251327191e+00
1.254737615585327148e+00,2.445970469232853439e+00
1.256737709045410156e+00,2.446382337377349891e+00
1.258736848831176758e+00,2.445971065279372247e+00
1.260737657546997070e+00,2.446663671334227352e+00
1.262737035751342773e+00,2.446842485289869806e+00
1.264738082885742188e+00,2.446540289704834059e+00
1.266736745834350586e+00,2.446542077844390484e+00
1.268736839294433594e+00,2.444919043173675810e+00
1.270740509033203125e+00,2.446416312028921958e+00
1.272737979888916016e+00,2.444763475032266875e+00
1.274736404418945312e+00,2.445103221547987538e+00
1.276737213134765625e+00,2.444872551545208772e+00
1.278735637664794922e+00,2.445072227129009512e+00
1.280735731124877930e+00,2.444996529221120873e+00
1.282735586166381836e+00,2.444905334103743222e+00
1.284734725952148438e+00,2.445141964571710069e+00
1.286734342575073242e+00,2.444626384332940994e+00
1.288734912872314453e+00,2.443558268971236735e+00
1.290744304656982422e+00,2.444616251542121255e+00
1.292735338211059570e+00,2.444347434562138766e+00
1.294734477996826172e+00,2.444304519212784577e+00
1.296734333038330078e+00,2.443923049440747342e+00
1.298733949661254883e+00,2.444293790375446029e+00
1.300733804702758789e+00,2.444356375259920888e+00
1.302733182907104492e+00,2.442878775939795410e+00
1.304733514785766602e+00,2.444064312465704880e+00
1.306733131408691406e+00,2.443981461999590543e+00
1.308733463287353516e+00,2.442218952443474755e+00
1.310732841491699219e+00,2.443054013616325015e+00
1.312733411788940430e+00,2.443223290827666538e+00
1.314732551574707031e+00,2.443122558965987956e+00
1.316732883453369141e+00,2.442979507801473993e+00
1.318732023239135742e+00,2.442329221049454269e+00
1.320732831954956055e+00,2.443029575709053880e+00
1.322731494903564453e+00,2.441532306853807732e+00
1.324732065200805664e+00,2.441884570346423367e+00
1.326731443405151367e+00,2.441844635229663218e+00
1.328731536865234375e+00,2.440488033352855801e+00
1.330730676651000977e+00,2.441605024529102330e+00
1.332735776901245117e+00,2.440940432660631210e+00
1.334732532501220703e+00,2.438078813323833138e+00
1.336731910705566406e+00,2.439433031014565323e+00
1.338732004165649414e+00,2.440098814976074060e+00
1.340733289718627930e+00,2.440395646142440533e+00
1.342729806900024414e+00,2.439656548459118390e+00
1.344730854034423828e+00,2.439635090784441296e+00
1.346729993820190430e+00,2.439518861713273701e+00
1.348730087280273438e+00,2.439164214034582834e+00
1.350730895996093750e+00,2.439784698460662149e+00
1.352730989456176758e+00,2.438317827977875218e+00
1.354730129241943359e+00,2.438491873561367207e+00
1.356729507446289062e+00,2.437530450526529613e+00
1.358729362487792969e+00,2.438457898909795141e+00
1.360728979110717773e+00,2.439459257061392883e+00
1.362735033035278320e+00,2.438757710308755655e+00
1.364729881286621094e+00,2.437261037500028316e+00
1.366728544235229492e+00,2.437230043081050290e+00
1.368728399276733398e+00,2.436893872844442477e+00
1.370728254318237305e+00,2.437930397740649902e+00
1.372728347778320312e+00,2.438708834494213384e+00
1.374727964401245117e+00,2.438407234955696445e+00
1.376728534698486328e+00,2.438170604487729598e+00
1.378728389739990234e+00,2.439496807992077798e+00
1.380726099014282227e+00,2.438912682403645782e+00
1.382725000381469727e+00,2.440042190556787283e+00
1.384729623794555664e+00,2.440327100792777593e+00
1.386726379394531250e+00,2.439887218461897156e+00
1.388727188110351562e+00,2.440327696839296401e+00
1.390725851058959961e+00,2.440418295910155244e+00
1.392726659774780273e+00,2.440911226381209609e+00
1.394726037979125977e+00,2.441477470574077380e+00
1.396726131439208984e+00,2.441836290578399904e+00
1.398725986480712891e+00,2.442253523141565630e+00
1.400725603103637695e+00,2.442209415699173825e+00
1.402724981307983398e+00,2.443168454547936186e+00
1.404725790023803711e+00,2.442354255003244212e+00
1.406724214553833008e+00,2.443205409432102293e+00
1.408725500106811523e+00,2.443599396181034500e+00
1.410724163055419922e+00,2.443484359202904521e+00
1.412724494934082031e+00,2.443995767116041939e+00
1.414723396301269531e+00,2.444176965257759626e+00
1.416724920272827148e+00,2.444425516656102637e+00
1.418724298477172852e+00,2.444843345265787171e+00
1.420724630355834961e+00,2.444981032011631861e+00
1.422723293304443359e+00,2.445448332482377474e+00
1.424725770950317383e+00,2.446096831094840773e+00
1.426724433898925781e+00,2.446520620169713389e+00
1.428723812103271484e+00,2.446791821335771111e+00
1.430723905563354492e+00,2.447188192270778551e+00
1.432723283767700195e+00,2.447787815068699580e+00
1.434722900390625000e+00,2.448056632048682069e+00
1.436723947525024414e+00,2.449067526944580742e+00
1.438722372055053711e+00,2.449598604392838830e+00
1.440723419189453125e+00,2.448661619265272371e+00
1.442722797393798828e+00,2.448304587400506271e+00
1.444722890853881836e+00,2.448573404380488761e+00
1.446722745895385742e+00,2.449695163928885755e+00
1.448723316192626953e+00,2.449251705318892469e+00
1.450721502304077148e+00,2.448413663913448168e+00
1.452721834182739258e+00,2.448966199036383351e+00
1.454720973968505859e+00,2.449218922760358019e+00
1.456721782684326172e+00,2.450067096956622059e+00
1.458721160888671875e+00,2.450090938817374386e+00
1.460721492767333984e+00,2.450063520677509210e+00
1.462720632553100586e+00,2.449304157412547589e+00
1.464721679687500000e+00,2.449186736248342378e+00
1.466720581054687500e+00,2.449069315084137166e+00
1.468720674514770508e+00,2.448567443915300679e+00
1.470720767974853516e+00,2.450067096956622059e+00
1.472720861434936523e+00,2.449891263233573646e+00
1.474719762802124023e+00,2.449467474158701030e+00
1.476720094680786133e+00,2.450195246958165818e+00
1.478719234466552734e+00,2.449440056018835854e+00
1.480719566345214844e+00,2.450713211383010126e+00
1.482719421386718750e+00,2.451306277669224265e+00
1.484719276428222656e+00,2.450989180921218313e+00
1.486719369888305664e+00,2.452217036749963164e+00
1.488718748092651367e+00,2.449661785323832497e+00
1.490718126296997070e+00,2.452159816284157579e+00
1.492718696594238281e+00,2.451590591858695767e+00
1.494718074798583984e+00,2.451908284653220527e+00
1.496718168258666992e+00,2.452005440235786260e+00
1.498717308044433594e+00,2.452168756981939701e+00
1.500717639923095703e+00,2.453213626529410885e+00
1.502717971801757812e+00,2.453284556065149058e+00
1.504718303680419922e+00,2.451242500691711790e+00
1.506717205047607422e+00,2.452824408152628699e+00
1.508718252182006836e+00,2.451570326277056289e+00
1.510717630386352539e+00,2.453543240254311808e+00
1.512717247009277344e+00,2.453483039555912182e+00
1.514716148376464844e+00,2.453859740955798951e+00
1.516716718673706055e+00,2.455103690040551623e+00
1.518716096878051758e+00,2.454328233519582181e+00
1.520716428756713867e+00,2.455365354462308414e+00
1.522715806961059570e+00,2.454890901433337103e+00
1.524716377258300781e+00,2.455916697492205980e+00
1.526715755462646484e+00,2.456122929587713610e+00
1.528716564178466797e+00,2.454595262360008245e+00
1.530715942382812500e+00,2.455918485631762405e+00
1.532716035842895508e+00,2.455084020505430953e+00
1.534715414047241211e+00,2.456557447499924773e+00
1.536715030670166016e+00,2.457214290763651388e+00
1.538714885711669922e+00,2.457210714484538538e+00
1.540714502334594727e+00,2.457753116816653982e+00
1.542713880538940430e+00,2.457215482856689004e+00
1.544714927673339844e+00,2.457553441232853242e+00
1.546714305877685547e+00,2.458614404036331802e+00
1.548714637756347656e+00,2.456546718662586226e+00
1.550714254379272461e+00,2.458290750776618960e+00
1.552715778350830078e+00,2.458465988453148565e+00
1.554713726043701172e+00,2.457210714484538538e+00
1.556713819503784180e+00,2.458152467984255463e+00
1.558712482452392578e+00,2.458116109146608164e+00
1.560713291168212891e+00,2.458697850548964947e+00
1.562712907791137695e+00,2.458689505897701633e+00
1.564713001251220703e+00,2.459708745444863620e+00
1.566712379455566406e+00,2.459157402414966054e+00
1.568713426589965820e+00,2.458717520084085617e+00
1.570715904235839844e+00,2.459891731726137731e+00
1.572712421417236328e+00,2.459380919859519121e+00
1.574711799621582031e+00,2.459935839168529537e+00
1.576712369918823242e+00,2.460748250573665086e+00
1.578711509704589844e+00,2.461092765461536214e+00
1.580711364746093750e+00,2.460837657551486313e+00
1.582710742950439453e+00,2.461864645703392807e+00
1.584711313247680664e+00,2.461945111983431911e+00
1.586710453033447266e+00,2.462538774316164858e+00
1.588711261749267578e+00,2.462006504774869153e+00
1.590710401535034180e+00,2.463241513161839702e+00
1.592710494995117188e+00,2.463028128508106374e+00
1.594710350036621094e+00,2.463011439205579745e+00
1.596710920333862305e+00,2.462417776872846797e+00
1.598709821701049805e+00,2.462910707343901162e+00
1.600710153579711914e+00,2.463037665252407304e+00
1.602709531784057617e+00,2.462865407808471740e+00
1.604709386825561523e+00,2.462867195948028165e+00
1.606709003448486328e+00,2.461290652905780529e+00
1.608709573745727539e+00,2.462699110829724258e+00
1.610708951950073242e+00,2.461449201279783505e+00
1.612709522247314453e+00,2.461831863144858357e+00
1.614708662033081055e+00,2.462655003387332453e+00
1.616708993911743164e+00,2.462797458505327608e+00
1.618708133697509766e+00,2.462672884782896698e+00
1.620708942413330078e+00,2.462736661760409174e+00
1.622707605361938477e+00,2.463180120370402459e+00
1.624707698822021484e+00,2.462200219893481812e+00
1.626707792282104492e+00,2.462818916180004702e+00
1.628707647323608398e+00,2.462850506645501536e+00
1.630706548690795898e+00,2.462572152921218116e+00
1.632707357406616211e+00,2.463801796889519391e+00
1.634707212448120117e+00,2.464441354804200568e+00
1.636800289154052734e+00,2.464262540848558114e+00
1.638845443725585938e+00,2.423135927097312070e+00
1.640824317932128906e+00,2.404270458730513926e+00
1.642904043197631836e+00,2.390753315776982024e+00
1.644918203353881836e+00,2.389402674365362245e+00
1.646898508071899414e+00,2.372491046487217758e+00
1.648859262466430664e+00,2.363201661491592276e+00
1.650799036026000977e+00,2.362183614037467905e+00
1.652723789215087891e+00,2.355570477911290705e+00
1.654721260070800781e+00,2.350904029715541466e+00
1.656721591949462891e+00,2.345665972908255181e+00
1.658785343170166016e+00,2.339830677489123101e+00
1.660731792449951172e+00,2.330726662960846962e+00
1.662725925445556641e+00,2.330907861102564649e+00
1.664750576019287109e+00,2.328433075956473086e+00
1.666778087615966797e+00,2.321838417272378940e+00
1.668797731399536133e+00,2.313023485305724769e+00
1.670854330062866211e+00,2.317549266523035278e+00
1.672836780548095703e+00,2.312816657163698331e+00
1.674885749816894531e+00,2.292211329008499110e+00
1.676846981048583984e+00,2.309845365267439554e+00
1.678884029388427734e+00,2.309919871082290577e+00
1.680849313735961914e+00,2.309249318748631374e+00
1.682814359664916992e+00,2.307933844081621722e+00
1.684762716293334961e+00,2.311798609709573959e+00
1.686709880828857422e+00,2.307954109663261200e+00
1.688765287399291992e+00,2.357586903284418778e+00
1.690700054168701172e+00,2.363049669629296190e+00
1.692698955535888672e+00,2.376390978859779679e+00
1.694702148437500000e+00,2.384830401519584697e+00
1.696698188781738281e+00,2.394671129545108190e+00
1.698696374893188477e+00,2.404068398960637953e+00
1.700697422027587891e+00,2.413693954192871249e+00
1.702696323394775391e+00,2.423048308259047268e+00
1.704696416854858398e+00,2.432301334417025451e+00
1.706696033477783203e+00,2.440958910102714263e+00
1.708696842193603516e+00,2.448206239724902922e+00
1.710695505142211914e+00,2.456606323314467044e+00
1.712701082229614258e+00,2.465706761563630334e+00
1.714698076248168945e+00,2.471584376285597795e+00
1.716699361801147461e+00,2.479400334286729457e+00
1.718698024749755859e+00,2.485322056451089168e+00
1.720699071884155273e+00,2.491344510477127017e+00
1.722697496414184570e+00,2.498123943582051254e+00
1.724698543548583984e+00,2.503208816434003836e+00
1.726697444915771484e+00,2.509106100691091967e+00
1.728698015213012695e+00,2.513845266562135805e+00
1.730696916580200195e+00,2.518709602202129805e+00
1.732697486877441406e+00,2.524077001103997464e+00
1.734696626663208008e+00,2.527687850914937417e+00
1.736698150634765625e+00,2.531678382358358181e+00
1.738696098327636719e+00,2.534915511002005406e+00
1.740695714950561523e+00,2.538791601513814999e+00
1.742695808410644531e+00,2.542445366674109142e+00
1.744696140289306641e+00,2.545240228800800697e+00
1.746695756912231445e+00,2.547378247663766082e+00
1.748695611953735352e+00,2.549324339547674789e+00
1.750695228576660156e+00,2.551239437012605471e+00
1.752698898315429688e+00,2.553034729127255709e+00
1.754695653915405273e+00,2.549462026293519479e+00
1.756695747375488281e+00,2.553935951463693677e+00
1.758697748184204102e+00,2.554069465883906709e+00
1.760694980621337891e+00,2.555428451946789359e+00
1.762693881988525391e+00,2.555680579624245219e+00
1.764694452285766602e+00,2.556663460333759907e+00
1.766694307327270508e+00,2.556195563816495486e+00
1.768694877624511719e+00,2.556322521725001629e+00
1.770693778991699219e+00,2.555230564502545043e+00
1.772694110870361328e+00,2.555044001942158083e+00
1.774693250656127930e+00,2.554956383103893280e+00
1.776693105697631836e+00,2.555131620780422885e+00
1.778692722320556641e+00,2.553698128902689213e+00
1.780693531036376953e+00,2.553124732151595744e+00
1.782692670822143555e+00,2.551755613297893355e+00
1.784693479537963867e+00,2.550971812125660598e+00
1.786692380905151367e+00,2.549718922343125804e+00
1.788693189620971680e+00,2.547759121389284509e+00
1.790692329406738281e+00,2.546409076024183538e+00
1.792692422866821289e+00,2.544910615075899774e+00
1.794692039489746094e+00,2.543400233197239846e+00
1.796692132949829102e+00,2.541925018063189601e+00
1.798691272735595703e+00,2.539832298735654081e+00
1.800692081451416016e+00,2.537421290567074994e+00
1.802691221237182617e+00,2.534869019373538368e+00
1.804692506790161133e+00,2.533417050053721642e+00
1.806690216064453125e+00,2.530675832113722823e+00
1.808691024780273438e+00,2.528473440226726598e+00
1.810691356658935547e+00,2.525879445776873400e+00
1.812691450119018555e+00,2.524193230175165059e+00
1.814689874649047852e+00,2.522417607595635491e+00
1.816690921783447266e+00,2.519373598024082117e+00
1.818690061569213867e+00,2.517969908472288854e+00
1.820689678192138672e+00,2.516258658916790569e+00
1.822690248489379883e+00,2.514366807266092962e+00
1.824689626693725586e+00,2.512989939807646067e+00
1.826688528060913086e+00,2.510426343730252086e+00
1.828689098358154297e+00,2.508342565100498689e+00
1.830688714981079102e+00,2.505439222507384045e+00
1.832690000534057617e+00,2.504396141099469730e+00
1.834688901901245117e+00,2.499203979874131676e+00
1.836689472198486328e+00,2.499243914990891824e+00
1.838688373565673828e+00,2.497476041016106763e+00
1.840688467025756836e+00,2.495471536573354854e+00
1.842687845230102539e+00,2.493272720965471478e+00
1.844688415527343750e+00,2.491662203271651777e+00
1.846686840057373047e+00,2.489723859992487576e+00
1.848687171936035156e+00,2.488203345323007909e+00
1.850687503814697266e+00,2.485570011802913371e+00
1.852687597274780273e+00,2.485056815750219528e+00
1.854687690734863281e+00,2.482865748747080215e+00
1.856687545776367188e+00,2.482238111762775201e+00
1.858715534210205078e+00,2.479445633822158879e+00
1.860690593719482422e+00,2.453254753739208649e+00
1.862683296203613281e+00,2.471579011866928521e+00
1.864691495895385742e+00,2.470763024182680123e+00
1.866686820983886719e+00,2.469859417660166923e+00
1.868686914443969727e+00,2.469615634633974377e+00
1.870686292648315430e+00,2.466089423428705185e+00
1.872685909271240234e+00,2.465225752022952133e+00
1.874685049057006836e+00,2.465842064123399791e+00
1.876685380935668945e+00,2.465036209229971131e+00
1.878685712814331055e+00,2.464341218989040794e+00
1.880685806274414062e+00,2.464116509451450110e+00
1.882684946060180664e+00,2.464575465270932408e+00
1.884688138961791992e+00,2.463699276888284384e+00
1.886684179306030273e+00,2.463229592231463538e+00
1.888684988021850586e+00,2.463601525259199843e+00
1.890684366226196289e+00,2.460794742202132124e+00
1.892683744430541992e+00,2.463120515718521641e+00
1.894683599472045898e+00,2.460902030575517596e+00
1.896685600280761719e+00,2.462157304544127623e+00
1.898684501647949219e+00,2.460137302891886701e+00
1.900684833526611328e+00,2.459072763809295292e+00
1.902683258056640625e+00,2.459877426609686335e+00
1.904683351516723633e+00,2.459143693345033466e+00
1.906682729721069336e+00,2.459482843814235320e+00
1.908683538436889648e+00,2.460257108242167146e+00
1.910682201385498047e+00,2.458017761471004814e+00
1.912682533264160156e+00,2.460322673359236045e+00
1.914682149887084961e+00,2.460550959175939578e+00
1.916682004928588867e+00,2.461387808488346263e+00
1.918681621551513672e+00,2.461978490588485169e+00
1.920682907104492188e+00,2.462120349659961516e+00
1.922681093215942383e+00,2.462723548736995394e+00
1.924681901931762695e+00,2.462449367338343631e+00
1.926681280136108398e+00,2.463152702230537283e+00
1.928681612014770508e+00,2.463646228748110456e+00
1.930680751800537109e+00,2.463874514564813989e+00
1.932680845260620117e+00,2.464391882943139489e+00
1.934679985046386719e+00,2.465271647604900362e+00
1.936680316925048828e+00,2.465704377377555101e+00
1.938680648803710938e+00,2.466438706688726779e+00
1.940680027008056641e+00,2.466101344359081349e+00
1.942679882049560547e+00,2.467980082986364732e+00
1.944681167602539062e+00,2.467668946703546862e+00
1.946679592132568359e+00,2.468297179734370683e+00
1.948679447174072266e+00,2.468728717413987805e+00
1.950679063796997070e+00,2.468666728576031755e+00
1.952682733535766602e+00,2.469913061846859659e+00
1.954679489135742188e+00,2.468637522296610154e+00
1.956678867340087891e+00,2.471005615115835052e+00
1.958678007125854492e+00,2.470279630455926689e+00
1.960679292678833008e+00,2.470705207670355730e+00
1.962684869766235352e+00,2.471627887681470792e+00
1.964678764343261719e+00,2.472234066991098711e+00
1.966677904129028320e+00,2.472334202806258485e+00
1.968678951263427734e+00,2.472308572805949733e+00
1.970677614212036133e+00,2.471202906513560560e+00
1.972676992416381836e+00,2.473293837701539655e+00
1.974676847457885742e+00,2.473913130034581354e+00
1.976676940917968750e+00,2.474300560271806670e+00
1.978676795959472656e+00,2.475111779583904603e+00
1.980677366256713867e+00,2.475931343547265850e+00
1.982677221298217773e+00,2.476178702852571245e+00
1.984677553176879883e+00,2.477764782639119812e+00
1.986680507659912109e+00,2.477829751709669903e+00
1.988677024841308594e+00,2.477496561705656131e+00
1.990676403045654297e+00,2.477909025896671391e+00
1.992676258087158203e+00,2.478737530557814761e+00
1.994674682617187500e+00,2.479331788937066516e+00
1.996675729751586914e+00,2.480321822204806903e+00
1.998674392700195312e+00,2.480545339649359970e+00
2.000675439834594727e+00,2.481324372449442262e+00
2.002674818038940430e+00,2.481469211753512649e+00
2.004675149917602539e+00,2.482684550605362528e+00
2.006674766540527344e+00,2.483239469914372943e+00
2.008677005767822266e+00,2.483369408055473126e+00
2.010674715042114258e+00,2.483114896191942034e+00
2.012674331665039062e+00,2.481897173154016922e+00
2.014673471450805664e+00,2.483727632013276843e+00
2.016674041748046875e+00,2.484631238535790487e+00
2.018673658370971680e+00,2.485044894819843364e+00
2.020673274993896484e+00,2.485050259238512638e+00
2.022672653198242188e+00,2.485006151796120832e+00
2.024673700332641602e+00,2.485128341332476509e+00
2.026673316955566406e+00,2.485928831807235895e+00
2.028672933578491211e+00,2.486456929022899942e+00
2.030673742294311523e+00,2.486223278787527136e+00
2.032673120498657227e+00,2.486336527626100690e+00
2.034671783447265625e+00,2.486821113445891740e+00
2.036672830581665039e+00,2.485670743664591953e+00
2.038671731948852539e+00,2.486740051119333828e+00
2.040672063827514648e+00,2.487262187869809793e+00
2.042671203613281250e+00,2.487227021125200110e+00
2.044672489166259766e+00,2.488028107646478304e+00
2.046672582626342773e+00,2.487271724614110724e+00
2.048673629760742188e+00,2.487626372292801591e+00
2.050671339035034180e+00,2.487864194853806055e+00
2.052671909332275391e+00,2.488343416254927831e+00
2.054670095443725586e+00,2.489008604169917760e+00
2.056669950485229492e+00,2.488491235791592260e+00
2.058674335479736328e+00,2.489493786036227618e+00
2.060670137405395508e+00,2.488741575329491695e+00
2.062669992446899414e+00,2.488611637188391512e+00
2.064669847488403320e+00,2.488419114162816470e+00
2.066669940948486328e+00,2.489428220919158719e+00
2.068669557571411133e+00,2.489849029761437293e+00
2.070668697357177734e+00,2.488734422771265997e+00
2.072671175003051758e+00,2.489878832087377702e+00
2.074668884277343750e+00,2.489431201151752759e+00
2.076668739318847656e+00,2.489661871154531525e+00
2.078668117523193359e+00,2.489049731379715524e+00
2.081679105758666992e+00,2.470457252318531527e+00
2.083690881729125977e+00,2.474319037713889724e+00
2.086148023605346680e+00,2.476273474249061746e+00
2.088118553161621094e+00,2.466275985989092145e+00
2.090679407119750977e+00,2.447443896227347260e+00
2.092666625976562500e+00,2.464996274113210983e+00
2.094664573669433594e+00,2.467162307162559909e+00
2.096665620803833008e+00,2.468510564388104012e+00
2.098664283752441406e+00,2.470423873713478269e+00
2.100665092468261719e+00,2.470354732317296520e+00
2.102663755416870117e+00,2.471477683958731131e+00
2.104667663574218750e+00,2.473619279100808921e+00
2.106667041778564453e+00,2.475428876331910555e+00
2.108666181564331055e+00,2.476293143784182416e+00
2.110665559768676758e+00,2.476951179140946646e+00
2.112667083740234375e+00,2.478500304043329105e+00
2.114665746688842773e+00,2.478638586835692603e+00
2.116663932800292969e+00,2.480350432437709696e+00
2.118663311004638672e+00,2.481838164548654913e+00
2.120666503906250000e+00,2.482924757352442224e+00
2.122665882110595703e+00,2.483740745036690623e+00
2.124662637710571289e+00,2.484187779925796757e+00
2.126661777496337891e+00,2.486371694370710372e+00
2.128665924072265625e+00,2.487057147867339779e+00
2.130663871765136719e+00,2.486245928555241846e+00
2.132668495178222656e+00,2.487640677409252987e+00
2.134664535522460938e+00,2.488256989509700645e+00
2.136664390563964844e+00,2.490021883251891666e+00
2.138663530349731445e+00,2.490263878138527787e+00
2.140664100646972656e+00,2.490688263259919211e+00
2.142663002014160156e+00,2.491290866290434280e+00
2.144663810729980469e+00,2.491373120710029809e+00
2.146662473678588867e+00,2.493648826318839440e+00
2.148662805557250977e+00,2.494103013766171273e+00
2.150661706924438477e+00,2.494449316793598825e+00
2.152667284011840820e+00,2.495062052614933634e+00
2.154663324356079102e+00,2.490215598370504324e+00
2.156662940979003906e+00,2.494468390282200687e+00
2.158661603927612305e+00,2.494082748184531795e+00
2.160662174224853516e+00,2.494927942148201794e+00
2.162661790847778320e+00,2.495199739360778324e+00
2.164661884307861328e+00,2.495610415412237160e+00
2.166660785675048828e+00,2.496124803557968619e+00
2.168661355972290039e+00,2.495758830995420396e+00
2.170660972595214844e+00,2.496151029604796179e+00
2.172660827636718750e+00,2.496053277975711637e+00
2.174660444259643555e+00,2.496732174960634154e+00
2.176661252975463867e+00,2.497383653805691495e+00
2.178660869598388672e+00,2.496598660540421122e+00
2.180660963058471680e+00,2.497113048686152581e+00
2.182659864425659180e+00,2.497065961011166735e+00
2.184667825698852539e+00,2.497271001013636749e+00
2.186661481857299805e+00,2.494592367958112789e+00
2.188660621643066406e+00,2.495997249602943668e+00
2.190659284591674805e+00,2.496627866819842723e+00
2.192681789398193359e+00,2.496279775652858746e+00
2.194672822952270508e+00,2.487778364155097677e+00
2.196659564971923828e+00,2.488642631607369538e+00
2.198659181594848633e+00,2.490927277913961291e+00
2.200659036636352539e+00,2.490982710240210452e+00
2.202658653259277344e+00,2.491805850482684548e+00
2.204658508300781250e+00,2.491434513501467052e+00
2.206657886505126953e+00,2.492041288857613779e+00
2.208659410476684570e+00,2.491017876984820134e+00
2.210658550262451172e+00,2.492298184907220104e+00
2.212658166885375977e+00,2.491406499315083067e+00
2.214657545089721680e+00,2.492291628395513214e+00
2.216660261154174805e+00,2.481668887337313389e+00
2.218657016754150391e+00,2.477083501468122062e+00
2.220657825469970703e+00,2.475120720281686726e+00
2.222656726837158203e+00,2.473308142817991051e+00
2.224657535552978516e+00,2.471218403723049573e+00
2.226658344268798828e+00,2.469327744165390026e+00
2.228969573974609375e+00,2.467120583906243336e+00
2.231660127639770508e+00,2.441634230808523931e+00
2.233654260635375977e+00,2.451754504651368016e+00
2.235658168792724609e+00,2.452270084890137092e+00
2.237656593322753906e+00,2.447716289486442598e+00
2.239657163619995117e+00,2.450238758354038815e+00
2.241654396057128906e+00,2.450803214407350161e+00
2.243656158447265625e+00,2.449531251136213506e+00
2.245653867721557617e+00,2.449556881136522257e+00
2.247655868530273438e+00,2.449611121369733802e+00
2.249654054641723633e+00,2.449335151831525614e+00
2.251654863357543945e+00,2.448658639032678330e+00
2.253652572631835938e+00,2.449243956714147963e+00
2.255654811859130859e+00,2.450000935793034351e+00
2.257653236389160156e+00,2.450520092310916276e+00
2.259657382965087891e+00,2.451418334414760203e+00
2.261652469635009766e+00,2.451030308131016078e+00
2.263653993606567383e+00,2.452189022563579179e+00
2.265652894973754883e+00,2.452914411176968734e+00
2.267653465270996094e+00,2.452928120246901322e+00
2.269659757614135742e+00,2.453826958397264502e+00
2.271657943725585938e+00,2.451482111392272678e+00
2.273652076721191406e+00,2.454614931895128915e+00
2.275654077529907227e+00,2.455269987019299105e+00
2.277651309967041016e+00,2.455810601211858124e+00
2.279653549194335938e+00,2.457315618671848778e+00
2.281650543212890625e+00,2.457030708435858468e+00
2.283653020858764648e+00,2.458371813103176873e+00
2.285651445388793945e+00,2.459954316610612590e+00
2.287653446197509766e+00,2.460971171971699345e+00
2.289650917053222656e+00,2.462279494080483300e+00
2.291651487350463867e+00,2.462241347103279576e+00
2.293650865554809570e+00,2.462624008968354428e+00
2.295651435852050781e+00,2.464540894572841534e+00
2.297647476196289062e+00,2.462587054084188321e+00
2.299650430679321289e+00,2.467953260893018363e+00
2.301651239395141602e+00,2.479648885685072468e+00
2.303651094436645508e+00,2.484273610624505135e+00
2.305649280548095703e+00,2.487685380898163601e+00
2.307651281356811523e+00,2.490711509074152730e+00
2.309648275375366211e+00,2.493816315390624538e+00
2.311650753021240234e+00,2.496456205422425967e+00
2.313648223876953125e+00,2.500369250818401667e+00
2.315650224685668945e+00,2.502282560143775925e+00
2.317656993865966797e+00,2.503650486904440697e+00
2.319650650024414062e+00,2.507030070666083077e+00
2.321647882461547852e+00,2.508841456036741135e+00
2.323650598526000977e+00,2.511355580253074038e+00
2.325646877288818359e+00,2.512318195380949248e+00
2.327650308609008789e+00,2.515166701694333540e+00
2.329647064208984375e+00,2.515719832863787975e+00
2.331649303436279297e+00,2.516775431248597261e+00
2.333646297454833984e+00,2.518087925683012873e+00
2.335648775100708008e+00,2.518891396390366300e+00
2.337646007537841797e+00,2.521542611306025083e+00
2.339648008346557617e+00,2.521649303632891748e+00
2.341645717620849609e+00,2.521866264565737925e+00
2.343648195266723633e+00,2.523120942487829144e+00
2.345645904541015625e+00,2.522608938528172917e+00
2.347647428512573242e+00,2.523673477610764326e+00
2.349645376205444336e+00,2.523501220166828762e+00
2.351649999618530273e+00,2.523410025049451111e+00
2.353655815124511719e+00,2.518828215459372633e+00
2.355646610260009766e+00,2.522476616200997501e+00
2.357645750045776367e+00,2.521192135952965874e+00
2.359645366668701172e+00,2.522097530615035499e+00
2.361645460128784180e+00,2.522467675503215379e+00
2.363644838333129883e+00,2.523101868999227282e+00
2.365644931793212891e+00,2.520889344321411318e+00
2.367645502090454102e+00,2.522429528526011655e+00
2.369645118713378906e+00,2.521442475490865309e+00
2.371646642684936523e+00,2.521547975724694357e+00
2.373643159866333008e+00,2.521592679213604971e+00
2.375645399093627930e+00,2.520940008275510014e+00
2.377642869949340820e+00,2.519671621283486207e+00
2.379644632339477539e+00,2.518402638244943592e+00
2.381642341613769531e+00,2.519259753138989755e+00
2.383644580841064453e+00,2.517825069168218466e+00
2.385642051696777344e+00,2.517413201023722014e+00
2.387646436691284180e+00,2.516751589387844934e+00
2.390087366104125977e+00,2.515396775650593497e+00
2.392648458480834961e+00,2.495680152854937717e+00
2.394643068313598633e+00,2.502070963629599021e+00
2.396643161773681641e+00,2.503586113880409414e+00
2.398675203323364258e+00,2.503615916206349823e+00
2.400656223297119141e+00,2.485567627616838138e+00
2.402644157409667969e+00,2.497250735431997271e+00
2.404644727706909180e+00,2.498416602422786070e+00
2.406662225723266602e+00,2.498261630327895944e+00
2.408666372299194336e+00,2.494175731441465871e+00
2.410645246505737305e+00,2.487275896939742381e+00
2.412643432617187500e+00,2.489627896502959459e+00
2.414643287658691406e+00,2.489856182319662992e+00
2.416642665863037109e+00,2.490443884187207857e+00
2.418642282485961914e+00,2.488226591137241428e+00
2.420643329620361328e+00,2.490372358604950875e+00
2.422641754150390625e+00,2.490992843031030191e+00
2.424642324447631836e+00,2.491574584433386974e+00
2.426641225814819336e+00,2.490250169068595198e+00
2.428641796112060547e+00,2.491335569779344894e+00
2.430641174316406250e+00,2.492288648162919174e+00
2.432641506195068359e+00,2.492580114910616373e+00
2.434641361236572266e+00,2.492339908163536677e+00
2.436641454696655273e+00,2.493215500499665893e+00
2.438640356063842773e+00,2.492584287236248031e+00
2.440641403198242188e+00,2.493475972828385068e+00
2.442640066146850586e+00,2.492918073286780611e+00
2.444643974304199219e+00,2.493427097013842797e+00
2.446648359298706055e+00,2.494147717255081886e+00
2.448640108108520508e+00,2.493959366555138502e+00
2.450639963150024414e+00,2.494191824697473692e+00
2.452639818191528320e+00,2.493301331198374271e+00
2.454639196395874023e+00,2.494795023774507570e+00
2.456640243530273438e+00,2.495411335874955228e+00
2.458639383316040039e+00,2.496072351464313499e+00
2.460640907287597656e+00,2.495625912621726172e+00
2.462639570236206055e+00,2.494391500281274432e+00
2.464639425277709961e+00,2.495332657734472548e+00
2.466637849807739258e+00,2.495205103779447597e+00
2.468638420104980469e+00,2.495611011458755968e+00
2.470638275146484375e+00,2.496247589140843104e+00
2.472638368606567383e+00,2.494532167259713162e+00
2.474638223648071289e+00,2.495477497038542936e+00
2.476637840270996094e+00,2.495457827503422266e+00
2.478637456893920898e+00,2.494963108892811476e+00
2.480638504028320312e+00,2.495166360755725066e+00
2.482637405395507812e+00,2.495067417033602908e+00
2.484637022018432617e+00,2.495175897500025997e+00
2.486636400222778320e+00,2.495624124482169748e+00
2.488636732101440430e+00,2.495703994715690044e+00
2.490636110305786133e+00,2.494581639120774241e+00
2.492637157440185547e+00,2.494034468416508332e+00
2.494636297225952148e+00,2.495083510289610729e+00
2.496636629104614258e+00,2.494532167259713162e+00
2.498635292053222656e+00,2.494884430752328797e+00
2.500636339187622070e+00,2.495100795638656166e+00
2.502635717391967773e+00,2.495123445406370877e+00
2.504636287689208984e+00,2.495852410298873281e+00
2.506634950637817383e+00,2.495507895411002153e+00
2.508635520935058594e+00,2.496244012861730255e+00
2.510634899139404297e+00,2.495476900992024127e+00
2.512635231018066406e+00,2.494240104465497154e+00
2.514634132385253906e+00,2.495285570059486702e+00
2.516634225845336914e+00,2.494824826100447979e+00
2.518633604049682617e+00,2.495313584245870686e+00
2.520634174346923828e+00,2.494435011677147429e+00
2.522634267807006836e+00,2.494738399355220793e+00
2.524634838104248047e+00,2.495115100755107562e+00
2.526633739471435547e+00,2.495078741917460263e+00
2.528633594512939453e+00,2.495605647040086694e+00
2.530632734298706055e+00,2.495863139136211828e+00
2.532633304595947266e+00,2.494688331447640905e+00
2.534632444381713867e+00,2.495388090060721709e+00
2.536633014678955078e+00,2.495449482852158951e+00
2.538632392883300781e+00,2.495982348439973464e+00
2.540632247924804688e+00,2.495662867505892279e+00
2.542631864547729492e+00,2.496699988448618512e+00
2.544632911682128906e+00,2.496174871465548506e+00
2.546632289886474609e+00,2.495979368207379423e+00
2.548632383346557617e+00,2.496277987513302321e+00
2.550631284713745117e+00,2.496260106117738076e+00
2.552635669708251953e+00,2.496176063558586122e+00
2.554632186889648438e+00,2.492389380024597756e+00
2.556632041931152344e+00,2.496036588673185008e+00
2.558630228042602539e+00,2.495575844714146285e+00
2.560631036758422852e+00,2.496215402628827462e+00
2.562630414962768555e+00,2.496515214027787977e+00
2.564631223678588867e+00,2.497242390780733956e+00
2.566630601882934570e+00,2.496742903797972701e+00
2.568630933761596680e+00,2.497815787531827425e+00
2.570630311965942383e+00,2.497191130780116453e+00
2.572633266448974609e+00,2.496259510071219268e+00
2.574630022048950195e+00,2.498535811726547706e+00
2.576630115509033203e+00,2.498499452888900407e+00
2.578628778457641602e+00,2.499121129408017339e+00
2.580629348754882812e+00,2.499356567782946570e+00
2.582628726959228516e+00,2.500525415006329411e+00
2.584628820419311523e+00,2.499887645231204658e+00
2.586629152297973633e+00,2.500699460589821399e+00
2.588628768920898438e+00,2.500802576637575214e+00
2.590628623962402344e+00,2.501332461992795686e+00
2.592629194259643555e+00,2.501161396641897738e+00
2.594627857208251953e+00,2.502255142003910748e+00
2.596628427505493164e+00,2.502914369453712595e+00
2.598628044128417969e+00,2.502852380615756545e+00
2.600628137588500977e+00,2.502715885962949471e+00
2.602627515792846680e+00,2.503179610154582235e+00
2.604624748229980469e+00,2.502906620848968089e+00
2.606624126434326172e+00,2.502963841314773674e+00
2.608627557754516602e+00,2.504393160866875689e+00
2.610626697540283203e+00,2.504480183658621684e+00
2.612627267837524414e+00,2.503452003413677573e+00
2.614626169204711914e+00,2.504328787842844406e+00
2.616626024246215820e+00,2.503969371792003074e+00
2.618626117706298828e+00,2.504388988541244032e+00
2.620626688003540039e+00,2.503133118526115197e+00
2.622625112533569336e+00,2.503524125042453363e+00
2.624625682830810547e+00,2.503299415504862679e+00
2.626626014709472656e+00,2.504111826909998229e+00
2.628623485565185547e+00,2.503756583184788553e+00
2.630622625350952148e+00,2.504718602266144956e+00
2.632645130157470703e+00,2.502941191547058963e+00
2.634624719619750977e+00,2.504403889704214237e+00
2.636626005172729492e+00,2.504419982960222057e+00
2.638623952865600586e+00,2.505100072038182191e+00
2.640624284744262695e+00,2.505370081111202296e+00
2.642623662948608398e+00,2.504988015292646253e+00
2.644624233245849609e+00,2.504507601798486860e+00
2.646623134613037109e+00,2.504668534358565068e+00
2.648624420166015625e+00,2.505274713668192987e+00
2.650623083114624023e+00,2.505368292971645872e+00
2.652623891830444336e+00,2.504794300174033594e+00
2.654622793197631836e+00,2.504942119710698023e+00
2.656623840332031250e+00,2.505560815997220914e+00
2.658623456954956055e+00,2.504930794826840668e+00
2.660624980926513672e+00,2.505313456691915519e+00
2.662621974945068359e+00,2.505811751581639157e+00
2.664623022079467773e+00,2.505383194134616076e+00
2.666621685028076172e+00,2.505171597620439172e+00
2.668623447418212891e+00,2.504711449707919257e+00
2.670621633529663086e+00,2.504974306222713665e+00
2.672622919082641602e+00,2.503674328765193025e+00
2.674621820449829102e+00,2.504547536915247008e+00
2.676626205444335938e+00,2.504915893663870463e+00
2.678621292114257812e+00,2.504551113194359857e+00
2.680623054504394531e+00,2.504886091337930054e+00
2.682620763778686523e+00,2.503839433650902890e+00
2.684622764587402344e+00,2.504744232266453707e+00
2.686685323715209961e+00,2.504768074127206035e+00
2.688704013824462891e+00,2.455066735156385516e+00
2.690690755844116211e+00,2.443483167109866905e+00
2.692723274230957031e+00,2.433426074198016487e+00
2.694698572158813477e+00,2.419907143104927716e+00
2.696894168853759766e+00,2.414177943966143491e+00
2.698881626129150391e+00,2.398410725404110710e+00
2.700873851776123047e+00,2.401668715675916221e+00
2.702919244766235352e+00,2.399844813328363191e+00
2.705625772476196289e+00,2.405221748974531781e+00
2.707616329193115234e+00,2.428205898786294448e+00
2.709614992141723633e+00,2.431696943246953957e+00
2.711616754531860352e+00,2.438717775191995507e+00
2.713615655899047852e+00,2.436139277951631321e+00
2.715615510940551758e+00,2.446365648074823262e+00
2.717614173889160156e+00,2.449217134620801595e+00
2.719614744186401367e+00,2.455321843066435417e+00
2.721614360809326172e+00,2.457431251696497565e+00
2.723614215850830078e+00,2.462392742919056854e+00
2.725613832473754883e+00,2.464767392249988642e+00
2.727615118026733398e+00,2.470981773255082725e+00
2.729613304138183594e+00,2.472173866292699085e+00
2.731612682342529297e+00,2.477832731942263944e+00
2.733613252639770508e+00,2.479825911501158497e+00
2.735612869262695312e+00,2.485161123891010959e+00
2.737613201141357422e+00,2.488122282996449997e+00
2.739612817764282227e+00,2.493475376781866260e+00
2.741612195968627930e+00,2.494678198656821166e+00
2.743613719940185547e+00,2.500020563604898882e+00
2.745614528656005859e+00,2.500101029884937986e+00
2.747614145278930664e+00,2.504824698546492812e+00
2.749614715576171875e+00,2.505711019719960575e+00
2.751619100570678711e+00,2.509574593254875197e+00
2.753615856170654297e+00,2.504847944360726331e+00
2.755613803863525391e+00,2.512932719341840482e+00
2.757613897323608398e+00,2.513969244238047906e+00
2.759613513946533203e+00,2.517057361251993530e+00
2.761614322662353516e+00,2.518510522664847873e+00
2.763616800308227539e+00,2.522210779453609053e+00
2.765613794326782227e+00,2.522384825037101042e+00
2.767612934112548828e+00,2.524754705995882365e+00
2.769616365432739258e+00,2.525602284145627596e+00
2.771612405776977539e+00,2.526592317413367983e+00
2.773612022399902344e+00,2.527004185557864435e+00
2.775613307952880859e+00,2.529043260698707218e+00
2.777611255645751953e+00,2.530705634439663232e+00
2.779613256454467773e+00,2.531854812127925403e+00
2.781611442565917969e+00,2.533480827031234117e+00
2.783612966537475586e+00,2.533713285173569307e+00
2.785610914230346680e+00,2.533290688191734308e+00
2.787612676620483398e+00,2.534821335652033714e+00
2.789610385894775391e+00,2.535621826126793099e+00
2.791612148284912109e+00,2.535448376589819919e+00
2.793610095977783203e+00,2.535366122170224390e+00
2.795611381530761719e+00,2.535344068449028487e+00
2.797609090805053711e+00,2.536856238467244840e+00
2.799611330032348633e+00,2.536778752419799776e+00
2.801609039306640625e+00,2.536353175205370736e+00
2.803611516952514648e+00,2.535276119145884355e+00
2.805608510971069336e+00,2.535360757751555116e+00
2.807610750198364258e+00,2.535425726822105208e+00
2.809608459472656250e+00,2.535200421237995716e+00
2.811610221862792969e+00,2.534460131461635957e+00
2.813608646392822266e+00,2.533071939119331706e+00
2.815609931945800781e+00,2.533081475863632637e+00
2.817607879638671875e+00,2.532237473993000254e+00
2.819609165191650391e+00,2.530724111881746285e+00
2.821606874465942383e+00,2.530058327920237549e+00
2.823609828948974609e+00,2.529589835356454319e+00
2.825607299804687500e+00,2.527629438356094216e+00
2.827610492706298828e+00,2.527751627892449893e+00
2.829606771469116211e+00,2.526970210906292369e+00
2.831608295440673828e+00,2.526355090898882327e+00
2.833606004714965820e+00,2.524804773903462252e+00
2.835608005523681641e+00,2.523944082730303240e+00
2.837605953216552734e+00,2.523838582496474192e+00
2.839607715606689453e+00,2.522547545736735675e+00
2.841606378555297852e+00,2.521382870838984491e+00
2.843607902526855469e+00,2.520591321062007228e+00
2.845606088638305664e+00,2.519479098257911165e+00
2.847607612609863281e+00,2.518890800343847491e+00
2.849605321884155273e+00,2.518229188707970412e+00
2.851607322692871094e+00,2.517058553345031147e+00
2.853605270385742188e+00,2.514248194008850135e+00
2.855606794357299805e+00,2.514985503552615853e+00
2.857637882232666016e+00,2.514090837727884775e+00
2.859616518020629883e+00,2.494627534702722471e+00
2.861606359481811523e+00,2.502159774560901440e+00
2.863605260848999023e+00,2.504518926682344215e+00
2.865605354309082031e+00,2.504571974822518143e+00
2.867605447769165039e+00,2.505047023898008263e+00
2.869604587554931641e+00,2.502937019221427306e+00
2.871605634689331055e+00,2.503152788061235867e+00
2.873604774475097656e+00,2.501883805022693252e+00
2.875604867935180664e+00,2.502593100380074986e+00
2.877603292465209961e+00,2.501921355953378168e+00
2.879604339599609375e+00,2.501652538973395679e+00
2.881603002548217773e+00,2.502078116187824719e+00
2.883604288101196289e+00,2.500627935007564417e+00
2.885602951049804688e+00,2.501691878043637018e+00
2.887604475021362305e+00,2.500801980591056406e+00
2.889601945877075195e+00,2.500980198500180052e+00
2.891606569290161133e+00,2.501750290602480220e+00
2.893603324890136719e+00,2.499309480107960724e+00
2.895604372024536133e+00,2.501175701758349135e+00
2.897602796554565430e+00,2.499611675692996471e+00
2.899603605270385742e+00,2.499931752673596463e+00
2.901600837707519531e+00,2.499298751270622176e+00
2.903602838516235352e+00,2.499691545926516767e+00
2.905598163604736328e+00,2.499759495229660899e+00
2.907601594924926758e+00,2.499672472437914905e+00
2.909602642059326172e+00,2.498231828001955535e+00
2.911602020263671875e+00,2.500040233140019552e+00
2.913601636886596680e+00,2.497515380086348102e+00
2.915602207183837891e+00,2.499857246858745441e+00
2.917599201202392578e+00,2.498877942428343601e+00
2.919600248336791992e+00,2.499791681741676541e+00
2.921600580215454102e+00,2.494311630047754136e+00
2.923601627349853516e+00,2.498901784289095929e+00
2.925599575042724609e+00,2.497824728229609548e+00
2.927601337432861328e+00,2.499023973825451606e+00
2.929598808288574219e+00,2.499583661506612486e+00
2.931599617004394531e+00,2.499472796854114165e+00
2.933599710464477539e+00,2.498947083824525350e+00
2.935600757598876953e+00,2.501072585710595320e+00
2.937598705291748047e+00,2.499478161272783439e+00
2.939599990844726562e+00,2.501603663158853408e+00
2.941597461700439453e+00,2.501623332693974078e+00
2.943599700927734375e+00,2.501544654553491398e+00
2.945597648620605469e+00,2.502447068982966982e+00
2.947599887847900391e+00,2.501625120833530502e+00
2.949597120285034180e+00,2.502498925030103294e+00
2.951603412628173828e+00,2.502419054796582998e+00
2.953599691390991211e+00,2.500077188024185659e+00
2.955597639083862305e+00,2.502368390842484303e+00
2.957597732543945312e+00,2.501308024085524551e+00
2.959598302841186523e+00,2.503491342483918913e+00
2.961611270904541016e+00,2.502239048747902928e+00
2.963598728179931641e+00,2.501477897343384882e+00
2.965596199035644531e+00,2.501601278972778175e+00
2.968160867691040039e+00,2.529364529772344827e+00
2.970607757568359375e+00,2.481872139200226979e+00
2.972599029541015625e+00,2.490686475120362786e+00
2.974597215652465820e+00,2.490527926746359810e+00
2.976596832275390625e+00,2.492540179793856225e+00
2.978596210479736328e+00,2.492882310495652121e+00
2.980597734451293945e+00,2.494263350279730673e+00
2.982595682144165039e+00,2.494498192608141096e+00
2.984595775604248047e+00,2.495273053082591730e+00
2.986595153808593750e+00,2.495359479827818916e+00
2.988596200942993164e+00,2.496902048218494485e+00
2.990595102310180664e+00,2.497768699856841579e+00
2.992595672607421875e+00,2.499512135924355505e+00
2.994594573974609375e+00,2.499848306160963318e+00
2.996595382690429688e+00,2.500992119430556215e+00
2.998594760894775391e+00,2.501182258270056025e+00
3.000594854354858398e+00,2.502619326426902546e+00
3.002594709396362305e+00,2.503351271551998991e+00
3.004595279693603516e+00,2.503952086442957636e+00
3.006593227386474609e+00,2.505001724362578841e+00
3.008594274520874023e+00,2.506074012049914757e+00
3.010593414306640625e+00,2.505737841813306943e+00
3.012593507766723633e+00,2.507036627177789967e+00
3.014593124389648438e+00,2.507374585553954205e+00
3.016597032546997070e+00,2.507136762992949741e+00
3.018593311309814453e+00,2.508157194633149345e+00
3.020593166351318359e+00,2.508069575794884543e+00
3.022592782974243164e+00,2.507432402066278598e+00
3.024592638015747070e+00,2.509957851166468856e+00
3.026591777801513672e+00,2.508902848828178378e+00
3.028592109680175781e+00,2.509962619538619322e+00
3.030591964721679688e+00,2.510033549074357495e+00
3.032592058181762695e+00,2.511175574204393968e+00
3.034591674804687500e+00,2.510079444656305725e+00
3.036591529846191406e+00,2.511797250723510899e+00
3.038591623306274414e+00,2.511812151886481104e+00
3.040591239929199219e+00,2.511843742351977937e+00
3.042591094970703125e+00,2.512865366085215157e+00
3.044590950012207031e+00,2.512753309339679220e+00
3.046590805053710938e+00,2.513236703066432653e+00
3.048590183258056641e+00,2.513770164700765974e+00
3.050590038299560547e+00,2.512456478173312746e+00
3.052590370178222656e+00,2.513661088187824078e+00
3.054589509963989258e+00,2.512220443751864707e+00
3.056590318679809570e+00,2.513581814000822590e+00
3.058589458465576172e+00,2.513720096793186087e+00
3.060590028762817383e+00,2.513979973075386454e+00
3.062589645385742188e+00,2.514049114471568203e+00
3.064589262008666992e+00,2.514364423080017730e+00
3.066589117050170898e+00,2.514460982616064655e+00
3.068588972091674805e+00,2.515362800999021431e+00
3.070588350296020508e+00,2.514970602389645649e+00
3.072588443756103516e+00,2.514955701226675444e+00
3.074588537216186523e+00,2.514226140287654232e+00
3.076588630676269531e+00,2.515185775182935402e+00
3.078587532043457031e+00,2.514726819363453103e+00
3.080589532852172852e+00,2.514998616576029633e+00
3.082588195800781250e+00,2.513789834235886644e+00
3.084588289260864258e+00,2.513647975164410298e+00
3.086587429046630859e+00,2.514784635875777496e+00
3.088587760925292969e+00,2.515029014948488850e+00
3.090586900711059570e+00,2.514897288667832242e+00
3.092586994171142578e+00,2.514903845179539132e+00
3.094586372375488281e+00,2.512958349342149234e+00
3.096587181091308594e+00,2.514132560984201348e+00
3.098585844039916992e+00,2.514036597494673231e+00
3.100586652755737305e+00,2.513813080050120163e+00
3.102586269378662109e+00,2.513400615859104903e+00
3.104586601257324219e+00,2.512362898869859862e+00
3.106586217880249023e+00,2.512510122360005482e+00
3.108585834503173828e+00,2.512302102124941428e+00
3.110585927963256836e+00,2.512734235851077358e+00
3.112586021423339844e+00,2.512496413290072894e+00
3.114584922790527344e+00,2.511707843745689672e+00
3.116585731506347656e+00,2.512041033749703445e+00
3.118584871292114258e+00,2.511154712576235681e+00
3.120584964752197266e+00,2.511489094673287070e+00
3.122584342956542969e+00,2.510690392338084109e+00
3.124585151672363281e+00,2.510726155129212600e+00
3.126584529876708984e+00,2.511183918855657282e+00
3.128584623336791992e+00,2.508141697423660332e+00
3.130584001541137695e+00,2.510468663033087466e+00
3.132584333419799805e+00,2.510198057913548553e+00
3.134583711624145508e+00,2.508985103247773907e+00
3.136588096618652344e+00,2.510031760934801071e+00
3.138669490814208984e+00,2.509786785815570909e+00
3.140794992446899414e+00,2.510448397451447988e+00
3.143909215927124023e+00,2.508871854409200353e+00
3.147834300994873047e+00,2.521562280841145753e+00
3.151831388473510742e+00,2.526857558114237623e+00
3.155832290649414062e+00,2.527258101374876720e+00
3.159831047058105469e+00,2.535957996363400913e+00
3.163829088211059570e+00,2.539968793388461155e+00
3.167830705642700195e+00,2.543858592970203336e+00
3.171829462051391602e+00,2.546451991373537727e+00
3.175831794738769531e+00,2.547300165569802211e+00
3.179831266403198242e+00,2.549293941175215572e+00
3.183829307556152344e+00,2.550725644913392820e+00
3.187850713729858398e+00,2.550325697699272531e+00
3.192028760910034180e+00,2.545153802055573511e+00
3.195858001708984375e+00,2.541913097132813437e+00
3.199853420257568359e+00,2.532226149109142899e+00
3.203849792480468750e+00,2.510442436986259906e+00
3.207857370376586914e+00,2.500996887802706681e+00
3.211871862411499023e+00,2.492899595844697558e+00
3.215855360031127930e+00,2.489018736960737499e+00
3.219855785369873047e+00,2.415729453054601183e+00
3.223848819732666016e+00,2.459351117533578712e+00
3.227853536605834961e+00,2.460186774752947780e+00
3.231883764266967773e+00,2.461256678254208463e+00
3.235857248306274414e+00,2.457351381462977269e+00
3.239853858947753906e+00,2.374158784646843046e+00
3.244108676910400391e+00,2.432627371862813526e+00
3.248137712478637695e+00,2.448852354151290989e+00
3.252137184143066406e+00,2.456594402384090881e+00
3.256134748458862305e+00,2.463122899904596874e+00
3.260137319564819336e+00,2.437070898660528506e+00
3.264136075973510742e+00,2.439514093341123235e+00
3.268135547637939453e+00,2.450306707657182947e+00
3.272263765335083008e+00,2.496837079147944394e+00
3.276137113571166992e+00,2.472210225130346384e+00
3.280135631561279297e+00,2.467887099729430656e+00
3.284135580062866211e+00,2.448452406937170700e+00
3.288134574890136719e+00,2.461971338030259471e+00
3.292134761810302734e+00,2.473746237009315063e+00
3.296132802963256836e+00,2.483627496198117068e+00
3.300136804580688477e+00,2.495180665872176462e+00
3.304139614105224609e+00,2.382852123123660348e+00
3.308133840560913086e+00,2.481826243618278749e+00
3.312133312225341797e+00,2.493556439108424172e+00
3.316130876541137695e+00,2.503552735275356156e+00
3.320131778717041016e+00,2.512546481197652781e+00
3.324152708053588867e+00,2.422573259183557148e+00
3.328134775161743164e+00,2.462833221296456099e+00
3.332135438919067383e+00,2.468945082300315175e+00
3.336133480072021484e+00,2.476851639372305680e+00
3.340242385864257812e+00,2.493833600739669976e+00
3.344287395477294922e+00,2.501823604324293626e+00
3.348471879959106445e+00,2.480891046630268715e+00
3.352476119995117188e+00,2.537097041260843344e+00
3.356470346450805664e+00,2.509078682551226791e+00
3.360469341278076172e+00,2.521315517582359167e+00
3.364471435546875000e+00,2.514063419588019599e+00
3.368469715118408203e+00,2.504896224128749793e+00
3.372468948364257812e+00,2.518117131962434474e+00
3.376469135284423828e+00,2.527600232076672615e+00
3.380469083786010742e+00,2.576634594992946781e+00
3.384468078613281250e+00,2.546963995333194397e+00
3.388466119766235352e+00,2.470940646045284961e+00
3.392466306686401367e+00,2.526206079269180282e+00
3.396471977233886719e+00,2.574261733801571417e+00
3.400466442108154297e+00,2.543706005061388442e+00
3.404466390609741211e+00,2.551350897711622601e+00
3.408468008041381836e+00,2.461326415696909020e+00
3.412464380264282227e+00,2.527357641143517686e+00
3.416464567184448242e+00,2.574673601946067869e+00
3.420465230941772461e+00,2.541354005498171365e+00
3.424464464187622070e+00,2.547617262317808162e+00
3.428464412689208984e+00,2.565346069973238663e+00
3.432646512985229492e+00,2.512145937937013684e+00
3.436467647552490234e+00,2.529698315822877408e+00
3.440575361251831055e+00,2.574517437758140126e+00
3.444622039794921875e+00,2.540915911306847352e+00
3.448892593383789062e+00,2.547948664182265510e+00
3.453972339630126953e+00,2.493126093521844666e+00
3.458891391754150391e+00,2.515169085880408772e+00
3.463887453079223633e+00,2.523609104586733043e+00
3.468890905380249023e+00,2.526607814622856996e+00
3.473930835723876953e+00,2.497287690316163378e+00
3.478852510452270508e+00,2.508018315794267039e+00
3.483852386474609375e+00,2.516394557523078834e+00
3.488847970962524414e+00,2.523276510629238079e+00
3.493869066238403320e+00,2.493077217707302395e+00
3.498852014541625977e+00,2.503258288295064915e+00
3.503848791122436523e+00,2.513568104930890001e+00
3.508846044540405273e+00,2.521497907817114470e+00
3.513874053955078125e+00,2.465058858997685842e+00
3.519000053405761719e+00,2.480093536388103370e+00
3.523991584777832031e+00,2.476567325182834178e+00
3.529085874557495117e+00,2.476773557278341809e+00
3.534018516540527344e+00,2.450419360449237693e+00
3.539114236831665039e+00,2.436546377723977308e+00
3.544163227081298828e+00,2.442778044078116828e+00
3.548198223114013672e+00,2.455443436556272285e+00
3.552172899246215820e+00,2.432894996749758398e+00
3.556158304214477539e+00,2.328357974095103256e+00
3.560103654861450195e+00,2.410605837178926070e+00
3.564098119735717773e+00,2.419736673800548576e+00
3.568107128143310547e+00,2.428124240413217727e+00
3.572137832641601562e+00,2.425454548055475890e+00
3.576141595840454102e+00,2.350967806693053941e+00
3.580182552337646484e+00,2.401291418229510644e+00
3.584152221679687500e+00,2.419606139612929585e+00
3.588148355484008789e+00,2.432607106281174048e+00
3.592160463333129883e+00,2.444324188747905247e+00
3.596145153045654297e+00,2.448960834617714077e+00
3.600191354751586914e+00,2.432753137678282052e+00
3.604150295257568359e+00,2.447357469482120074e+00
3.608176708221435547e+00,2.458976800319767175e+00
3.612163782119750977e+00,2.463463242466836345e+00
3.616158485412597656e+00,2.493996321439304609e+00
3.620146274566650391e+00,2.453632647232133035e+00
3.624138116836547852e+00,2.468804415321876444e+00
3.628141164779663086e+00,2.484196720623578880e+00
3.632136583328247070e+00,2.494075595626306097e+00
3.636131286621093750e+00,2.507773936721555685e+00
3.640131711959838867e+00,2.433785490248857819e+00
3.644178152084350586e+00,2.487112580193588940e+00
3.646586894989013672e+00,2.493250667244275576e+00
3.648586988449096680e+00,2.464220221545722733e+00
3.650634765625000000e+00,2.458879644737201442e+00
3.652617454528808594e+00,2.454663807709671186e+00
3.654583692550659180e+00,2.450121933236352412e+00
3.656586647033691406e+00,2.447473102506768861e+00
3.658581018447875977e+00,2.354508323014774529e+00
3.660589456558227539e+00,2.396361517472448188e+00
3.662598848342895508e+00,2.401926803818560163e+00
3.664599418640136719e+00,2.405300427115014461e+00
3.666580677032470703e+00,2.405783820841767895e+00
3.668629646301269531e+00,2.404477286872540365e+00
3.670570135116577148e+00,2.404366422220042043e+00
3.672587156295776367e+00,2.406050849682193959e+00
3.674576759338378906e+00,2.405653882700667712e+00
3.676580667495727539e+00,2.408336688081823329e+00
3.678666114807128906e+00,2.403629708722795133e+00
3.680619478225708008e+00,2.397855806095100295e+00
3.682574510574340820e+00,2.380433366350336755e+00
3.684588432312011719e+00,2.392138527886692234e+00
3.686737537384033203e+00,2.401703286374007096e+00
3.688839197158813477e+00,2.393414663483460547e+00
3.691758155822753906e+00,2.375527307454026626e+00
3.693826436996459961e+00,2.388239191560648678e+00
3.695835351943969727e+00,2.393663214881803558e+00
3.698686361312866211e+00,2.354529184642932815e+00
3.700646162033081055e+00,2.348664086897860326e+00
3.702573537826538086e+00,2.380004212856794865e+00
3.704564571380615234e+00,2.381590292643343432e+00
3.706554889678955078e+00,2.385231540826742602e+00
3.708574533462524414e+00,2.389130281106266906e+00
3.710596323013305664e+00,2.381747052877789983e+00
3.712582349777221680e+00,2.376767680259666449e+00
3.714564085006713867e+00,2.383287237082390320e+00
3.716577291488647461e+00,2.394767093034636307e+00
3.718562364578247070e+00,2.391655134159938800e+00
3.720573425292968750e+00,2.402635503129423089e+00
3.722599506378173828e+00,2.393593477439103001e+00
3.724607467651367188e+00,2.364810391045855553e+00
3.726547956466674805e+00,2.396070646771269796e+00
3.728541612625122070e+00,2.440569095679413714e+00
3.730576276779174805e+00,2.453534895603048493e+00
3.732534170150756836e+00,2.462415988733290373e+00
3.734535694122314453e+00,2.485789952968353589e+00
3.736535072326660156e+00,2.500456869656666470e+00
3.738535404205322266e+00,2.513527573767611045e+00
3.740534305572509766e+00,2.525266709955538591e+00
3.742534399032592773e+00,2.534936968676682501e+00
3.744537591934204102e+00,2.546478813466884095e+00
3.746534109115600586e+00,2.548568552561826017e+00
3.748534202575683594e+00,2.560428090146552371e+00
3.750533819198608398e+00,2.569766350956720125e+00
3.752537965774536133e+00,2.580043981080530013e+00
3.754535198211669922e+00,2.583636353449386913e+00
3.756534814834594727e+00,2.593757819385268615e+00
3.758542060852050781e+00,2.600055050856477035e+00
3.760534286499023438e+00,2.605960679764828480e+00
3.762532711029052734e+00,2.611642195182108495e+00
3.764532804489135742e+00,2.617832734326450250e+00
3.766557216644287109e+00,2.614248110562337857e+00
3.768552064895629883e+00,2.605371189757727191e+00
3.770741701126098633e+00,2.607422781875464946e+00
3.773535251617431641e+00,2.599551987594602931e+00
3.775532960891723633e+00,2.619405701089585037e+00
3.777531862258911133e+00,2.623919561376519383e+00
3.779531717300415039e+00,2.627098277461323406e+00
3.781528472900390625e+00,2.630290106569541209e+00
3.783530712127685547e+00,2.633735255448252488e+00
3.785531282424926758e+00,2.633879498705804068e+00
3.787682771682739258e+00,2.621545508092106402e+00
3.789546489715576172e+00,2.612263275654706618e+00
3.791532039642333984e+00,2.630504683316312153e+00
3.793529510498046875e+00,2.632614687992893110e+00
3.795531511306762695e+00,2.634145335453192516e+00
3.797528982162475586e+00,2.634653763133735893e+00
3.799531221389770508e+00,2.633700684750161614e+00
3.801526308059692383e+00,2.633984402893114307e+00
3.803528785705566406e+00,2.633998708009565703e+00
3.805530309677124023e+00,2.632513360084695719e+00
3.807530641555786133e+00,2.630848602157664473e+00
3.809529542922973633e+00,2.617303445017748587e+00
3.811529874801635742e+00,2.625844195585750995e+00
3.813529729843139648e+00,2.623504712999428889e+00
3.815531015396118164e+00,2.622445538335506754e+00
3.817524909973144531e+00,2.620676472267684076e+00
3.819528818130493164e+00,2.618284537587706851e+00
3.821528434753417969e+00,2.614844157081146037e+00
3.823529481887817383e+00,2.614035321955123337e+00
3.825527191162109375e+00,2.611934854022843311e+00
3.827527999877929688e+00,2.609130455151850381e+00
3.829526185989379883e+00,2.590186308644570001e+00
3.831528186798095703e+00,2.599516820849993248e+00
3.833526372909545898e+00,2.597510528267684915e+00
3.835528135299682617e+00,2.595398139405028726e+00
3.837526559829711914e+00,2.592293929135075725e+00
3.839528322219848633e+00,2.588370750948280286e+00
3.841526031494140625e+00,2.585787485335765634e+00
3.843530893325805664e+00,2.582066366918846168e+00
3.845526218414306641e+00,2.575616547538822410e+00
3.847527265548706055e+00,2.574189612172795627e+00
3.849525451660156250e+00,2.571067520507278381e+00
3.851526975631713867e+00,2.566737838594655763e+00
3.853522062301635742e+00,2.565299578344771625e+00
3.855524539947509766e+00,2.563085265527399237e+00
3.857542753219604492e+00,2.558542198961043290e+00
3.859548330307006836e+00,2.550332254210979421e+00
3.861527204513549805e+00,2.540754382700250336e+00
3.863529443740844727e+00,2.542569940396540051e+00
3.865525245666503906e+00,2.539853160363812368e+00
3.867524862289428711e+00,2.537902896154272003e+00
3.869521617889404297e+00,2.534696165883083996e+00
3.871525526046752930e+00,2.533097569119640458e+00
3.873524188995361328e+00,2.529427710703338494e+00
3.875524997711181641e+00,2.529391947912210004e+00
3.877519845962524414e+00,2.527418437888436120e+00
3.879524230957031250e+00,2.525059881813512153e+00
3.881524085998535156e+00,2.520630660132248568e+00
3.883795976638793945e+00,2.521122398510265317e+00
3.885737895965576172e+00,2.518316807546235214e+00
3.887700796127319336e+00,2.494003473997530307e+00
3.889562368392944336e+00,2.497106492174445691e+00
3.891524314880371094e+00,2.502286732469407582e+00
3.893522024154663086e+00,2.502952516430916319e+00
3.895523548126220703e+00,2.502250969678279091e+00
3.897518157958984375e+00,2.501169145246642245e+00
3.899521112442016602e+00,2.499968111511243762e+00
3.901522636413574219e+00,2.499730884996758107e+00
3.903523445129394531e+00,2.499916255464107451e+00
3.905520200729370117e+00,2.499335110108269475e+00
3.907522678375244141e+00,2.498131096140276952e+00
3.909520626068115234e+00,2.498314082421551063e+00
3.911522150039672852e+00,2.498161494512736169e+00
3.913516759872436523e+00,2.497377693340503413e+00
3.915520668029785156e+00,2.497526704970205458e+00
3.917732000350952148e+00,2.495217024709823761e+00
3.919599294662475586e+00,2.495900094020377935e+00
3.921519994735717773e+00,2.495445906573046102e+00
3.923521757125854492e+00,2.497203647757011424e+00
3.925518751144409180e+00,2.496661245424895981e+00
3.927520990371704102e+00,2.493235170034786563e+00
3.929515838623046875e+00,2.496618330075541792e+00
3.931518554687500000e+00,2.496437131933824105e+00
3.933519363403320312e+00,2.495827376345083337e+00
3.935519933700561523e+00,2.496485411701847568e+00
3.937517642974853516e+00,2.497849166136880683e+00
3.939520120620727539e+00,2.497587501715123892e+00
3.941517829895019531e+00,2.498280107769978997e+00
3.943517923355102539e+00,2.498029172185560753e+00
3.945515871047973633e+00,2.491768895598518441e+00
3.947521209716796875e+00,2.496472894724952596e+00
3.949517965316772461e+00,2.495410739828436419e+00
3.951518535614013672e+00,2.497502863109453131e+00
3.953522443771362305e+00,2.497205435896567849e+00
3.955517768859863281e+00,2.494613229586271075e+00
3.957517385482788086e+00,2.493908106554520998e+00
3.959517478942871094e+00,2.495073973545309798e+00
3.961516618728637695e+00,2.495981156346935848e+00
3.963516712188720703e+00,2.497228681710801368e+00
3.965517044067382812e+00,2.496742307751453893e+00
3.967516899108886719e+00,2.498275339397828532e+00
3.969516754150390625e+00,2.498553097075593143e+00
3.971517801284790039e+00,2.500524818959810602e+00
3.973514556884765625e+00,2.500486075936088071e+00
3.975516557693481445e+00,2.501691281997118210e+00
3.977516412734985352e+00,2.502392232703236630e+00
3.979544401168823242e+00,2.503455579692790423e+00
3.981552124023437500e+00,2.481192050122266846e+00
3.983534812927246094e+00,2.472716268624814528e+00
3.985512971878051758e+00,2.493482529340091958e+00
3.987550973892211914e+00,2.495963870997890410e+00
3.989526271820068359e+00,2.477134761468739566e+00
3.991519451141357422e+00,2.492552100724232389e+00
3.993512392044067383e+00,2.495192586802552626e+00
3.995516061782836914e+00,2.495475112852467703e+00
3.997514247894287109e+00,2.497068345197241968e+00
3.999515771865844727e+00,2.498386204050326853e+00
4.001513481140136719e+00,2.499231994060515660e+00
4.003514528274536133e+00,2.501295507108629579e+00
4.005512952804565430e+00,2.502502501309216143e+00
4.007514715194702148e+00,2.504191101096999716e+00
4.009512662887573242e+00,2.504404485750733045e+00
4.011514663696289062e+00,2.505796850418668953e+00
4.013511896133422852e+00,2.506739796011423493e+00
4.015514135360717773e+00,2.507465780671331856e+00
4.017511129379272461e+00,2.509023250224977630e+00
4.019514083862304688e+00,2.510017455818349674e+00
4.021511077880859375e+00,2.509885729537693067e+00
4.023513078689575195e+00,2.510255278379354138e+00
4.025511026382446289e+00,2.511468233045128784e+00
4.027512788772583008e+00,2.511992157935161174e+00
4.029510974884033203e+00,2.512080968866463593e+00
4.031512975692749023e+00,2.514143885868058703e+00
4.033510208129882812e+00,2.513355316323675481e+00
4.035512208938598633e+00,2.514875830993155148e+00
4.037513256072998047e+00,2.515769900771367862e+00
4.039511203765869141e+00,2.516362371011063193e+00
4.041509628295898438e+00,2.516165079613337685e+00
4.043511152267456055e+00,2.516340913336386098e+00
4.045509815216064453e+00,2.516776027295116069e+00
4.047511100769042969e+00,2.516494693338238609e+00
4.049509286880493164e+00,2.513849438887767462e+00
4.051511049270629883e+00,2.516490521012606951e+00
4.053508281707763672e+00,2.517212929393402465e+00
4.055510759353637695e+00,2.518188061498172647e+00
4.057508230209350586e+00,2.518001498937785687e+00
4.059510946273803711e+00,2.519448103838933140e+00
4.061507940292358398e+00,2.518835368017598331e+00
4.063509941101074219e+00,2.519607844305973732e+00
4.065507173538208008e+00,2.519743742912261997e+00
4.067509889602661133e+00,2.519673409423042632e+00
4.069507360458374023e+00,2.519322338023464614e+00
4.071509599685668945e+00,2.519529166165491052e+00
4.073507070541381836e+00,2.520276608500076510e+00
4.075508594512939453e+00,2.520604434085421008e+00
4.077507257461547852e+00,2.520351114314927532e+00
4.079508304595947266e+00,2.520925107112539809e+00
4.081506490707397461e+00,2.520765962692018025e+00
4.083508729934692383e+00,2.520562710829104436e+00
4.085505962371826172e+00,2.520987095950495860e+00
4.087507724761962891e+00,2.520379724547830325e+00
4.089505434036254883e+00,2.520997824787834407e+00
4.091508388519287109e+00,2.520720663156588603e+00
4.093505382537841797e+00,2.520404758501620268e+00
4.095507860183715820e+00,2.520678939900272031e+00
4.097505569458007812e+00,2.520154418963720833e+00
4.099508762359619141e+00,2.516730727759686648e+00
4.101505756378173828e+00,2.519461216862346919e+00
4.103507280349731445e+00,2.519427242210774853e+00
4.105504035949707031e+00,2.519126834765295531e+00
4.107506513595581055e+00,2.518776359412236321e+00
4.109503984451293945e+00,2.519280614767148041e+00
4.111506700515747070e+00,2.518419327547470221e+00
4.113503932952880859e+00,2.518306674755415475e+00
4.115506887435913086e+00,2.518729867783769283e+00
4.117503404617309570e+00,2.517993154286522373e+00
4.119505643844604492e+00,2.517642082886944355e+00
4.121503114700317383e+00,2.517904343355219954e+00
4.123506069183349609e+00,2.517587842653732810e+00
4.125502347946166992e+00,2.517859639866309340e+00
4.127505064010620117e+00,2.516849937063448284e+00
4.129501819610595703e+00,2.517526449862295568e+00
4.131504774093627930e+00,2.517037095670354052e+00
4.133501768112182617e+00,2.516874971017238227e+00
4.135504007339477539e+00,2.516867222412493721e+00
4.137502193450927734e+00,2.516222300079143270e+00
4.139504194259643555e+00,2.516000570774146627e+00
4.141501665115356445e+00,2.516634168223639723e+00
4.143503904342651367e+00,2.516534628454998757e+00
4.145501375198364258e+00,2.515814604260278475e+00
4.147503376007080078e+00,2.514789404247927962e+00
4.149508714675903320e+00,2.515817584492872516e+00
4.151502847671508789e+00,2.515226306346214358e+00
4.153506755828857422e+00,2.515829505423248680e+00
4.155502796173095703e+00,2.512466610964132485e+00
4.157501697540283203e+00,2.512563170500179410e+00
4.159501075744628906e+00,2.512902917015900073e+00
4.161501169204711914e+00,2.513287367020531349e+00
4.163501262664794922e+00,2.513770760747284783e+00
4.165499925613403320e+00,2.512951792830442344e+00
4.167500495910644531e+00,2.512838543991868789e+00
4.169500827789306641e+00,2.511792482351360434e+00
4.171500682830810547e+00,2.508135736958472251e+00
4.173499107360839844e+00,2.511991561888642366e+00
4.175500869750976562e+00,2.511419953277105321e+00
4.177498579025268555e+00,2.511950434678844601e+00
4.179500579833984375e+00,2.510886491642772000e+00
4.181498289108276367e+00,2.511536778394791725e+00
4.183500528335571289e+00,2.511601747465341816e+00
4.185497760772705078e+00,2.511026562574691923e+00
4.187498569488525391e+00,2.511413396765398431e+00
4.189497947692871094e+00,2.510599197220706458e+00
4.191499471664428711e+00,2.511518896999227479e+00
4.193496942520141602e+00,2.512104810727215920e+00
4.195499181747436523e+00,2.511266769321771619e+00
4.197496652603149414e+00,2.511443199091338840e+00
4.199498414993286133e+00,2.510457338149230111e+00
4.201497077941894531e+00,2.511864007933617415e+00
4.203497171401977539e+00,2.511384190485976831e+00
4.205497741699218750e+00,2.511018813969947416e+00
4.207500696182250977e+00,2.511669696768485949e+00
4.209498882293701172e+00,2.510174216052796226e+00
4.211498975753784180e+00,2.510785759781093418e+00
4.213496208190917969e+00,2.511481346068542564e+00
4.215497255325317383e+00,2.510643304663098263e+00
4.217495679855346680e+00,2.511416973044511280e+00
4.219497203826904297e+00,2.509801686978541113e+00
4.221495151519775391e+00,2.510817946293109060e+00
4.223497629165649414e+00,2.511359156532186887e+00
4.225495100021362305e+00,2.511299551880306069e+00
4.227497339248657227e+00,2.511978448865228586e+00
4.229493141174316406e+00,2.512361706776822246e+00
4.231495141983032227e+00,2.512079776773425976e+00
4.233495235443115234e+00,2.511066497691452071e+00
4.235495328903198242e+00,2.511834801654195815e+00
4.237493753433227539e+00,2.512236537007872528e+00
4.239495038986206055e+00,2.511532606069160067e+00
4.241492986679077148e+00,2.512093485843358565e+00
4.243495464324951172e+00,2.511113585366437917e+00
4.245492458343505859e+00,2.511942686074100095e+00
4.247494935989379883e+00,2.512055338866154841e+00
4.249492883682250977e+00,2.510628403500128059e+00
4.251494407653808594e+00,2.511707843745689672e+00
4.253491640090942383e+00,2.511467636998609976e+00
4.255493879318237305e+00,2.512036861424071787e+00
4.257491350173950195e+00,2.512340845148663959e+00
4.259493112564086914e+00,2.511713208164358946e+00
4.261491060256958008e+00,2.512408794451808092e+00
4.263493537902832031e+00,2.511796654676992091e+00
4.265491485595703125e+00,2.511480153975504948e+00
4.267493247985839844e+00,2.511768044444089298e+00
4.269490242004394531e+00,2.511550487464724313e+00
4.271502494812011719e+00,2.511232198623680745e+00
4.273493528366088867e+00,2.508766354175371305e+00
4.275493860244750977e+00,2.510595024895074800e+00
4.277490854263305664e+00,2.511055768854113524e+00
4.279492855072021484e+00,2.511309088624607000e+00
4.281490802764892578e+00,2.510966957922811105e+00
4.283492326736450195e+00,2.510444225125816331e+00
4.285489797592163086e+00,2.510540784661863256e+00
4.287492036819458008e+00,2.510366143031852459e+00
4.289489746093750000e+00,2.512103022587659495e+00
4.291491508483886719e+00,2.510602177453300499e+00
4.293491125106811523e+00,2.509839237909226028e+00
4.295490980148315430e+00,2.511053384668038291e+00
4.297489404678344727e+00,2.511731089559923191e+00
4.299490690231323242e+00,2.511623205140018911e+00
4.301488399505615234e+00,2.511224450018936238e+00
4.303490877151489258e+00,2.511902154910821139e+00
4.305488824844360352e+00,2.512087525378170483e+00
4.307490825653076172e+00,2.512607277942571216e+00
4.309488296508789062e+00,2.512719334688107153e+00
4.311490535736083984e+00,2.513136567251272879e+00
4.313487529754638672e+00,2.513108553064888895e+00
4.315489530563354492e+00,2.513921560516543252e+00
4.317487955093383789e+00,2.513354720277156673e+00
4.319488763809204102e+00,2.514114679588637102e+00
4.321486949920654297e+00,2.513566912837852385e+00
4.323489189147949219e+00,2.513773144933360015e+00
4.325486421585083008e+00,2.514412106801522384e+00
4.327488422393798828e+00,2.514424623778417356e+00
4.329486608505249023e+00,2.514768542619769676e+00
4.331488132476806641e+00,2.515932621471002495e+00
4.333486557006835938e+00,2.515521349373024407e+00
4.335491418838500977e+00,2.516506018222095964e+00
4.337486028671264648e+00,2.516148390310811056e+00
4.339487552642822266e+00,2.516270579847166733e+00
4.341485500335693359e+00,2.516555490083157043e+00
4.343487262725830078e+00,2.516007127285853517e+00
4.345485210418701172e+00,2.516414823104718312e+00
4.347486972808837891e+00,2.517254056603200230e+00
4.349484682083129883e+00,2.517513932885400596e+00
4.351486682891845703e+00,2.515741886584983877e+00
4.353486537933349609e+00,2.518169584056089594e+00
4.355488538742065430e+00,2.515187563322491826e+00
4.357487201690673828e+00,2.515818180539391324e+00
4.359485149383544922e+00,2.516818346597951450e+00
4.361484766006469727e+00,2.516280116591467664e+00
4.363484859466552734e+00,2.517254056603200230e+00
4.365483999252319336e+00,2.516250314265527255e+00
4.367484331130981445e+00,2.516456546361034885e+00
4.369484186172485352e+00,2.516811194039725752e+00
4.371485710144042969e+00,2.517131271020325745e+00
4.373482465744018555e+00,2.516695561015076965e+00
4.375484704971313477e+00,2.517330946604126485e+00
4.377483367919921875e+00,2.517578901955950688e+00
4.379489183425903320e+00,2.517895402657437831e+00
4.381481885910034180e+00,2.517304124510780117e+00
4.383483648300170898e+00,2.517763080330262415e+00
4.385481119155883789e+00,2.518273296150362217e+00
4.387483596801757812e+00,2.518015804054237083e+00
4.389481544494628906e+00,2.518652381736324219e+00
4.391482591629028320e+00,2.517752351492923868e+00
4.393480539321899414e+00,2.517915668239077309e+00
4.395482540130615234e+00,2.518164219637420320e+00
4.397480487823486328e+00,2.518994512438120115e+00
4.399483919143676758e+00,2.518437208943034467e+00
4.401480913162231445e+00,2.518457474524673945e+00
4.403482437133789062e+00,2.518813314296402428e+00
4.405479907989501953e+00,2.518794836854319374e+00
4.407482147216796875e+00,2.519625129655019169e+00
4.409478425979614258e+00,2.519347371977254557e+00
4.411481618881225586e+00,2.519361081047187145e+00
4.413479328155517578e+00,2.517730893818246773e+00
4.415480852127075195e+00,2.516876163110275844e+00
4.417479753494262695e+00,2.518097462427313804e+00
4.419481039047241211e+00,2.518446149640816589e+00
4.421480178833007812e+00,2.518291773592445271e+00
4.423480987548828125e+00,2.518799605226469840e+00
4.425478696823120117e+00,2.518248262196572274e+00
4.427480220794677734e+00,2.518794240807800566e+00
4.429477453231811523e+00,2.519190015696289198e+00
4.431479454040527344e+00,2.519570293375288816e+00
4.433477640151977539e+00,2.519531550351566285e+00
4.435479640960693359e+00,2.518940272204908570e+00
4.437477350234985352e+00,2.519294919883599437e+00
4.439479112625122070e+00,2.519131603137445996e+00
4.441477060317993164e+00,2.519322338023464614e+00
4.443479537963867188e+00,2.520331444779806862e+00
4.445477008819580078e+00,2.519195380114958471e+00
4.447478771209716797e+00,2.519581022212627364e+00
4.449476003646850586e+00,2.520385685013018406e+00
4.451477766036987305e+00,2.519222798254823648e+00
4.453475475311279297e+00,2.519667448957854550e+00
4.455477237701416016e+00,2.519981565473266460e+00
4.457476854324340820e+00,2.515908183563731360e+00
4.459477663040161133e+00,2.519110145462768902e+00
4.461476564407348633e+00,2.518420519640507838e+00
4.463477373123168945e+00,2.519635858492357716e+00
4.465475320816040039e+00,2.519396247791796828e+00
4.467477083206176758e+00,2.519958915705551750e+00
4.469474554061889648e+00,2.520378532454792708e+00
4.471476316452026367e+00,2.519420089652549155e+00
4.473474025726318359e+00,2.520668211062933484e+00
4.475476741790771484e+00,2.520720067110069795e+00
4.477474212646484375e+00,2.521208229208973695e+00
4.479476213455200195e+00,2.520671191295527525e+00
4.481474161148071289e+00,2.520530524317088794e+00
4.483475685119628906e+00,2.520258131057993456e+00
4.485474586486816406e+00,2.520393433617762913e+00
4.487474679946899414e+00,2.521010937811248187e+00
4.489474296569824219e+00,2.520257535011474648e+00
4.491474866867065430e+00,2.520670595249008716e+00
4.493472337722778320e+00,2.520588340829413188e+00
4.495474576950073242e+00,2.519806923843255664e+00
4.497472524642944336e+00,2.521147432464055260e+00
4.499474048614501953e+00,2.521076502928317087e+00
4.501472234725952148e+00,2.520019116403951376e+00
4.503473758697509766e+00,2.520712914551844097e+00
4.505472421646118164e+00,2.520942392461585246e+00
4.507473945617675781e+00,2.521333398977923412e+00
4.509471178054809570e+00,2.521567049213296219e+00
4.511473894119262695e+00,2.521241607814026953e+00
4.513470888137817383e+00,2.521548571771213165e+00
4.515472650527954102e+00,2.522101106894148348e+00
4.517470598220825195e+00,2.521446647816496966e+00
4.519473075866699219e+00,2.520622911527504062e+00
4.521470546722412109e+00,2.520888152228373702e+00
4.523472070693969727e+00,2.521432342700045570e+00
4.525470733642578125e+00,2.521177234789995669e+00
4.527472019195556641e+00,2.520917358507795303e+00
4.529469966888427734e+00,2.521074714788760662e+00
4.531471252441406250e+00,2.520534696642720451e+00
4.533470153808593750e+00,2.521282138977305909e+00
4.535471439361572266e+00,2.520459594781350621e+00
4.537469387054443359e+00,2.518499197780990517e+00
4.539470434188842773e+00,2.519315185465238915e+00
4.541469097137451172e+00,2.519051732903925700e+00
4.543470859527587891e+00,2.519408764768691800e+00
4.545468091964721680e+00,2.518931331507126448e+00
4.547470569610595703e+00,2.518303694522821434e+00
4.549469709396362305e+00,2.518656554061955877e+00
4.551470518112182617e+00,2.516973914739360385e+00
4.553468942642211914e+00,2.516870202645087762e+00
4.555469036102294922e+00,2.514239253311068012e+00
4.557468891143798828e+00,2.515664996584057622e+00
4.559468030929565430e+00,2.516019644262748489e+00
4.561467885971069336e+00,2.515230478671846015e+00
4.563467979431152344e+00,2.516224088218699695e+00
4.565472602844238281e+00,2.515275182160756628e+00
4.567467689514160156e+00,2.515272201928162588e+00
4.569468021392822266e+00,2.515368165417690705e+00
4.571469545364379883e+00,2.515063585646579725e+00
4.573466300964355469e+00,2.515921296587145140e+00
4.575468301773071289e+00,2.516939940087788319e+00
4.577465772628784180e+00,2.517096700322234870e+00
4.579467535018920898e+00,2.516106071007975675e+00
4.581465482711791992e+00,2.515803279376421120e+00
4.583467006683349609e+00,2.516293229614881444e+00
4.585464715957641602e+00,2.516956033343796140e+00
4.587526321411132812e+00,2.516904177296659828e+00
4.589512586593627930e+00,2.487644849734884644e+00
4.591474294662475586e+00,2.483717499222457104e+00
4.593464851379394531e+00,2.499572336622755131e+00
4.595464944839477539e+00,2.503448427134564724e+00
4.597463369369506836e+00,2.503461540157978504e+00
4.599463462829589844e+00,2.504344881098852227e+00
4.601462602615356445e+00,2.501265108736170362e+00
4.603465318679809570e+00,2.505705655301291301e+00
4.605463027954101562e+00,2.503797114348067510e+00
4.607463121414184570e+00,2.506399453449184023e+00
4.609462022781372070e+00,2.507334650437194057e+00
4.611462354660034180e+00,2.508337200681829415e+00
4.613465547561645508e+00,2.507594526719394423e+00
4.615462303161621094e+00,2.509540618603303130e+00
4.617461681365966797e+00,2.509135903017032376e+00
4.619463205337524414e+00,2.511725725141253918e+00
4.621461153030395508e+00,2.509552539533679294e+00
4.623461008071899414e+00,2.512889803992486293e+00
4.625460624694824219e+00,2.511603535604898241e+00
4.627463817596435547e+00,2.512944640272216645e+00
4.629464864730834961e+00,2.513463200743579762e+00
4.631464719772338867e+00,2.514999212622548441e+00
4.633472204208374023e+00,2.515079082856068737e+00
4.635464906692504883e+00,2.516582312176503411e+00
4.637464284896850586e+00,2.516565622873976782e+00
4.639465332031250000e+00,2.517292203580403953e+00
4.641462802886962891e+00,2.516933979622600237e+00
4.643464088439941406e+00,2.518089713822569298e+00
4.645462989807128906e+00,2.518728079644212858e+00
4.647464036941528320e+00,2.516818942644470258e+00
4.649461030960083008e+00,2.518666686852775616e+00
4.651463270187377930e+00,2.519941630356506312e+00
4.653461456298828125e+00,2.519527378025934627e+00
4.655464172363281250e+00,2.519206704998815827e+00
4.657461166381835938e+00,2.520266475709256770e+00
4.659461736679077148e+00,2.519249620348170016e+00
4.661461591720581055e+00,2.520011367799206869e+00
4.663462638854980469e+00,2.521274390372561403e+00
4.665460109710693359e+00,2.520957889671074259e+00
4.667462825775146484e+00,2.521505060375340168e+00
4.669460058212280273e+00,2.522033157591004215e+00
4.671461582183837891e+00,2.521984877822980753e+00
4.673459529876708984e+00,2.522501054108268637e+00
4.675461769104003906e+00,2.523035111789120766e+00
4.677458286285400391e+00,2.522970142718570674e+00
4.679459810256958008e+00,2.522602978062984835e+00
4.681460380554199219e+00,2.521382870838984491e+00
4.683461189270019531e+00,2.523398104119074947e+00
4.685458183288574219e+00,2.522584500620901782e+00
4.687474012374877930e+00,2.523231211093808657e+00
4.689458131790161133e+00,2.516213359381361148e+00
4.691461801528930664e+00,2.514064611681057215e+00
4.693457126617431641e+00,2.515959443564348863e+00
4.695459842681884766e+00,2.515810431934646818e+00
4.697457551956176758e+00,2.515607776118251593e+00
4.699459314346313477e+00,2.516187729381052396e+00
4.701457738876342773e+00,2.516202034497503792e+00
4.703459501266479492e+00,2.517229022649410286e+00
4.705456972122192383e+00,2.518114151729840433e+00
4.707458257675170898e+00,2.518561782665465376e+00
4.709455490112304688e+00,2.519063653834301864e+00
4.711915254592895508e+00,2.519396843838315636e+00
4.713811874389648438e+00,2.518034281496320137e+00
4.716459512710571289e+00,2.500523626866772986e+00
4.718456745147705078e+00,2.509792746280758990e+00
4.720457553863525391e+00,2.511935533515874397e+00
4.722455978393554688e+00,2.512801589107702682e+00
4.724457025527954102e+00,2.513033451203519064e+00
4.726455688476562500e+00,2.514486016569854598e+00
4.728456258773803711e+00,2.515270413788606163e+00
4.730455875396728516e+00,2.516665758689136556e+00
4.732456207275390625e+00,2.516851725203004708e+00
4.734454631805419922e+00,2.517893018471362598e+00
4.736455678939819336e+00,2.518260779173467245e+00
4.738453865051269531e+00,2.518260183126948437e+00
4.740465164184570312e+00,2.519734206167961066e+00
4.742456436157226562e+00,2.518013419868161851e+00
4.744456529617309570e+00,2.519412937094323457e+00
4.746455430984497070e+00,2.519783678029022145e+00
4.748455286026000977e+00,2.519983353612822885e+00
4.750454425811767578e+00,2.521117034091596043e+00
4.752454519271850586e+00,2.521049680834970719e+00
4.754458189010620117e+00,2.520595493387638886e+00
4.756454467773437500e+00,2.517649831491688861e+00
4.758453607559204102e+00,2.519338431279472434e+00
4.760453701019287109e+00,2.519207897091853443e+00
4.762454271316528320e+00,2.519250216394688824e+00
4.764453649520874023e+00,2.519922556867904451e+00
4.766453266143798828e+00,2.520199718499150254e+00
4.768453598022460938e+00,2.520731988040445959e+00
4.770452737808227539e+00,2.521331014791848180e+00
4.772453308105468750e+00,2.521409096885812051e+00
4.774452447891235352e+00,2.522257271082076091e+00
4.776452779769897461e+00,2.522183957360262685e+00
4.778451919555664062e+00,2.521609964562650408e+00
4.780452728271484375e+00,2.518768014760973006e+00
4.782451629638671875e+00,2.520776095482837764e+00
4.784452199935913086e+00,2.522254290849482050e+00
4.786452054977416992e+00,2.522321644106107374e+00
4.788452386856079102e+00,2.522458734805433256e+00
4.790451288223266602e+00,2.523443403654504369e+00
4.792451143264770508e+00,2.523464861329181463e+00
4.794450759887695312e+00,2.523830237845210878e+00
4.796450853347778320e+00,2.524197402500796716e+00
4.798449993133544922e+00,2.524743381112025009e+00
4.800450801849365234e+00,2.524777355763597075e+00
4.802450418472290039e+00,2.524498405992794847e+00
4.804451942443847656e+00,2.524673047622805644e+00
4.806449890136718750e+00,2.525283399258065220e+00
4.808450460433959961e+00,2.525463405306745290e+00
4.810449361801147461e+00,2.525881829962948633e+00
4.812449693679809570e+00,2.525266113909019783e+00
4.814448833465576172e+00,2.525380554840630953e+00
4.816449403762817383e+00,2.525058093673955728e+00
4.818448543548583984e+00,2.525022926929346045e+00
4.820448875427246094e+00,2.526152435082487546e+00
4.822448492050170898e+00,2.525456848795038400e+00
4.824448347091674805e+00,2.524804773903462252e+00
4.826447963714599609e+00,2.525629106238973964e+00
4.828448772430419922e+00,2.525963488336025353e+00
4.830447435379028320e+00,2.525891962753768372e+00
4.832448244094848633e+00,2.525538507168115121e+00
4.834448575973510742e+00,2.525612416936447335e+00
4.836447954177856445e+00,2.524789276693973239e+00
4.838446855545043945e+00,2.520231308964647088e+00
4.840448141098022461e+00,2.520753445715123053e+00
4.842447042465209961e+00,2.519700231516389000e+00
4.844447374343872070e+00,2.520085873614057892e+00
4.846446275711059570e+00,2.519890966402407617e+00
4.848447322845458984e+00,2.520112695707404260e+00
4.850446462631225586e+00,2.519859971983429592e+00
4.852446556091308594e+00,2.520910801996088413e+00
4.854446887969970703e+00,2.521575989911078342e+00
4.856446743011474609e+00,2.520631256178767376e+00
4.858469486236572266e+00,2.519575657793958090e+00
4.860453605651855469e+00,2.497040331010857983e+00
4.862446308135986328e+00,2.513041199808263571e+00
4.864449501037597656e+00,2.515772881003961903e+00
4.866445064544677734e+00,2.515874208912159293e+00
4.868448972702026367e+00,2.515781821701744025e+00
4.870444774627685547e+00,2.516174020311119808e+00
4.872444868087768555e+00,2.516795100783717931e+00
4.874444007873535156e+00,2.517251076370606189e+00
4.876444578170776367e+00,2.517530026141408417e+00
4.878444194793701172e+00,2.517919244518190158e+00
4.880444288253784180e+00,2.517544927304378621e+00
4.882443428039550781e+00,2.517348827999690730e+00
4.884443283081054688e+00,2.517806591726135412e+00
4.886443138122558594e+00,2.517792286609684016e+00
4.888443470001220703e+00,2.518219651963669481e+00
4.890443086624145508e+00,2.517936529867235596e+00
4.892443895339965820e+00,2.518267931731692943e+00
4.894442558288574219e+00,2.518421711733545454e+00
4.896443128585815430e+00,2.519146504300416201e+00
4.898442745208740234e+00,2.519092264067204656e+00
4.900441884994506836e+00,2.519318165697832956e+00
4.902442216873168945e+00,2.515402736115781579e+00
4.904441833496093750e+00,2.518931331507126448e+00
4.906441926956176758e+00,2.519743742912261997e+00
4.908442020416259766e+00,2.519604864073379691e+00
4.910448551177978516e+00,2.520184221289661242e+00
4.912503719329833984e+00,2.489594517897906201e+00
4.914516210556030273e+00,2.486406861115320055e+00
4.916443586349487305e+00,2.502472698983275734e+00
4.918442249298095703e+00,2.503889501558482777e+00
4.920441627502441406e+00,2.505405247855811979e+00
4.922440767288208008e+00,2.505461872275098756e+00
4.924439430236816406e+00,2.507607639742808203e+00
4.926534175872802734e+00,2.508252562076158654e+00
4.928441047668457031e+00,2.507247627645448063e+00
4.930440664291381836e+00,2.510932983271239038e+00
4.932444572448730469e+00,2.511372865602119475e+00
4.934439659118652344e+00,2.511646450954252430e+00
4.936438083648681641e+00,2.513271869811042336e+00
4.938436508178710938e+00,2.514086665402253118e+00
4.940441608428955078e+00,2.515970172401687410e+00
4.942439079284667969e+00,2.515046896344053096e+00
4.944439172744750977e+00,2.516911925901404334e+00
4.946438312530517578e+00,2.518404426384500017e+00
4.948439121246337891e+00,2.518574299642360348e+00
4.950438261032104492e+00,2.520266475709256770e+00
4.952437400817871094e+00,2.519544067328461256e+00
4.954437017440795898e+00,2.519563736863581926e+00
4.956440448760986328e+00,2.516373695894920548e+00
4.958438396453857422e+00,2.518893780576441532e+00
4.960440158843994141e+00,2.519364657326299994e+00
4.962437391281127930e+00,2.519904675472340205e+00
4.964437484741210938e+00,2.521565857120258602e+00
4.966435909271240234e+00,2.522653642017083531e+00
4.968436717987060547e+00,2.522492113410486514e+00
4.970436334609985352e+00,2.520962658043224724e+00
4.972436666488647461e+00,2.522378864571912960e+00
4.974436044692993164e+00,2.523316445745998227e+00
4.976435899734497070e+00,2.523916664590438064e+00
4.978438615798950195e+00,2.525056901580918112e+00
4.980436563491821289e+00,2.524676027855399685e+00
4.982435941696166992e+00,2.524696293437039163e+00
4.984436035156250000e+00,2.521813216425563997e+00
4.986434936523437500e+00,2.514465750988215120e+00
4.988434791564941406e+00,2.511803807235217789e+00
4.990434408187866211e+00,2.510479391870426014e+00
4.992434501647949219e+00,2.508401573705860699e+00
4.994434118270874023e+00,2.507458032066587350e+00
4.996434450149536133e+00,2.505941093676220532e+00
4.998433113098144531e+00,2.503893077837595627e+00
5.000434160232543945e+00,2.502917945732825444e+00
5.002433300018310547e+00,2.500719130124942069e+00
5.004434347152709961e+00,2.501378357574743916e+00
5.006434440612792969e+00,2.500102221977975603e+00
5.008433818817138672e+00,2.499608695460402430e+00
5.010433197021484375e+00,2.498069703348839710e+00
5.012433528900146484e+00,2.497805058694488878e+00
5.014432191848754883e+00,2.497510015667678829e+00
5.016433000564575195e+00,2.496953308219111989e+00
5.018432140350341797e+00,2.496580183098338068e+00
5.020432710647583008e+00,2.495982348439973464e+00
5.022432088851928711e+00,2.494668065866001427e+00
5.024432659149169922e+00,2.495721280064735481e+00
5.026432514190673828e+00,2.495084106336129537e+00
5.028432607650756836e+00,2.495322524943652809e+00
5.030431509017944336e+00,2.494452297026192866e+00
5.032431602478027344e+00,2.494910060752637548e+00
5.034430027008056641e+00,2.494952976101991737e+00
5.036431550979614258e+00,2.493865191205166809e+00
5.038430690765380859e+00,2.494290172373077041e+00
5.040431499481201172e+00,2.495188414476920968e+00
5.042431592941284180e+00,2.493756114692224912e+00
5.044430732727050781e+00,2.494743167727371258e+00
5.046430110931396484e+00,2.494496404468584672e+00
5.048430919647216797e+00,2.495555579132506807e+00
5.050430297851562500e+00,2.496735155193228195e+00
5.052429914474487305e+00,2.495943605416250932e+00
5.054429531097412109e+00,2.497065364964647927e+00
5.056430101394653320e+00,2.496585547517007342e+00
5.058428287506103516e+00,2.497670948227757037e+00
5.060429573059082031e+00,2.497663199623012531e+00
5.062428236007690430e+00,2.497046887522564873e+00
5.064429521560668945e+00,2.498638927774301521e+00
5.066428661346435547e+00,2.498809397078680661e+00
5.068428993225097656e+00,2.503617108299387439e+00
5.070427656173706055e+00,2.511583270023258763e+00
