time_s,voltage_v
1.964569091796875000e-03,2.568489619313433003e+00
3.952741622924804688e-03,2.563856549722737022e+00
5.941867828369140625e-03,2.561706013882877109e+00
7.942676544189453125e-03,2.560253448516541575e+00
9.939908981323242188e-03,2.558942742221682387e+00
1.194071769714355469e-02,2.557944364302678686e+00
1.393938064575195312e-02,2.556504315913238123e+00
1.594090461730957031e-02,2.555798596834969239e+00
1.793932914733886719e-02,2.554507560075230721e+00
1.994180679321289062e-02,2.553391164945503000e+00
2.193927764892578125e-02,2.552056020743372677e+00
2.394175529479980469e-02,2.550525969329592080e+00
2.593851089477539062e-02,2.550421661188800648e+00
2.794027328491210938e-02,2.548983996985435319e+00
2.993822097778320312e-02,2.547942107670558620e+00
3.194022178649902344e-02,2.547826474645909833e+00
3.393816947937011719e-02,2.547061746962278939e+00
3.594279289245605469e-02,2.546922272076877825e+00
3.794407844543457031e-02,2.545993035554055428e+00
3.994011878967285156e-02,2.546010916949619673e+00
4.193782806396484375e-02,2.545933430902174610e+00
4.394078254699707031e-02,2.545170491358100140e+00
4.594421386718750000e-02,2.544735377399370169e+00
4.794025421142578125e-02,2.541840975504037647e+00
4.993867874145507812e-02,2.541691367827816794e+00
5.198645591735839844e-02,2.542141978996035778e+00
5.404949188232421875e-02,2.504626215055729688e+00
5.601215362548828125e-02,2.485577164361139069e+00
5.798172950744628906e-02,2.470382746503680504e+00
6.005644798278808594e-02,2.458027894261824553e+00
6.195998191833496094e-02,2.444918447127157002e+00
6.395220756530761719e-02,2.482707200373077239e+00
6.593894958496093750e-02,2.487092910658468270e+00
6.794190406799316406e-02,2.491432129315391819e+00
6.994009017944335938e-02,2.491831480482993300e+00
7.193994522094726562e-02,2.496643364029331735e+00
7.393932342529296875e-02,2.499885857091648234e+00
7.594037055969238281e-02,2.504465878542170287e+00
7.793879508972167969e-02,2.504800856685740484e+00
7.993984222412109375e-02,2.510119379773065873e+00
8.193945884704589844e-02,2.512786091898213670e+00
8.393907546997070312e-02,2.516790928458086274e+00
8.593940734863281250e-02,2.519305648720937985e+00
8.794093132019042969e-02,2.522764506669581852e+00
8.994007110595703125e-02,2.525179687163792597e+00
9.193944931030273438e-02,2.529911700476610736e+00
9.393906593322753906e-02,2.532062832362989457e+00
9.593939781188964844e-02,2.536115352644366272e+00
9.793949127197265625e-02,2.538821403839755408e+00
9.994387626647949219e-02,2.542251651555496483e+00
1.019382476806640625e-01,2.544693654143053596e+00
1.039400100708007812e-01,2.548321193256520623e+00
1.059391498565673828e-01,2.551012939335458363e+00
1.079409122467041016e-01,2.553139633314565948e+00
1.099386215209960938e-01,2.555414146830337963e+00
1.119408607482910156e-01,2.559246725946274559e+00
1.139376163482666016e-01,2.561412162949104676e+00
1.159398555755615234e-01,2.562881417617966839e+00
1.179380416870117188e-01,2.565731712070907555e+00
1.199405193328857422e-01,2.568306036985640084e+00
1.219379901885986328e-01,2.568922945132606550e+00
1.239407062530517578e-01,2.572023579123446702e+00
1.259388923645019531e-01,2.574225374963924118e+00
1.279404163360595703e-01,2.575267264278800816e+00
1.299383640289306641e-01,2.576701948249572105e+00
1.319408416748046875e-01,2.578421542456334148e+00
1.339383125305175781e-01,2.580655524808827206e+00
1.359395980834960938e-01,2.582683275065812634e+00
1.379380226135253906e-01,2.583622644379454325e+00
1.399402618408203125e-01,2.584481547413056912e+00
1.419374942779541016e-01,2.586117099060666558e+00
1.439404487609863281e-01,2.588071535595838579e+00
1.459381580352783203e-01,2.589705299103891800e+00
1.479396820068359375e-01,2.590824674466213562e+00
1.499381065368652344e-01,2.591662119825139055e+00
1.519410610198974609e-01,2.593258332402507360e+00
1.539382934570312500e-01,2.595211576844641765e+00
1.559391021728515625e-01,2.596280884299383640e+00
1.579377651214599609e-01,2.597792458271081184e+00
1.599400043487548828e-01,2.598250221997525866e+00
1.619386672973632812e-01,2.598887395726131810e+00
1.639406681060791016e-01,2.600734543887918360e+00
1.659388542175292969e-01,2.601319861569387992e+00
1.679408550262451172e-01,2.602210355068487413e+00
1.699385643005371094e-01,2.602041673903664698e+00
1.719405651092529297e-01,2.603951406949926106e+00
1.739385128021240234e-01,2.604990316032208764e+00
1.759400367736816406e-01,2.604742360680384561e+00
1.779379844665527344e-01,2.606533480469403141e+00
1.799402236938476562e-01,2.606863094194304065e+00
1.819379329681396484e-01,2.608119560255951708e+00
1.839401721954345703e-01,2.606933427683523430e+00
1.859381198883056641e-01,2.608420563747949839e+00
1.879403591156005859e-01,2.608211947466366976e+00
1.899383068084716797e-01,2.607225490477739438e+00
1.919403076171875000e-01,2.609306884921417602e+00
1.939394474029541016e-01,2.606968594428133112e+00
1.959397792816162109e-01,2.607838226299074247e+00
1.979384422302246094e-01,2.609056545383518166e+00
1.999397277832031250e-01,2.608641100959908865e+00
2.019381523132324219e-01,2.609495235621361431e+00
2.039399147033691406e-01,2.609538747017234428e+00
2.059385776519775391e-01,2.609314037479643300e+00
2.079410552978515625e-01,2.609914256324083581e+00
2.099380493164062500e-01,2.608707858170015381e+00
2.119405269622802734e-01,2.608840180497190797e+00
2.139379978179931641e-01,2.609514309109963293e+00
2.159404754638671875e-01,2.609850479346571106e+00
2.179377079010009766e-01,2.609352780503365832e+00
2.199399471282958984e-01,2.609201980734107362e+00
2.219388484954833984e-01,2.609788490508615055e+00
2.239437103271484375e-01,2.607512188853286172e+00
2.259380817413330078e-01,2.608380628631189690e+00
2.279405593872070312e-01,2.607816768624397152e+00
2.299380302429199219e-01,2.606674147447841872e+00
2.319405078887939453e-01,2.607342315595425841e+00
2.339377403259277344e-01,2.605955315346159207e+00
2.359402179718017578e-01,2.605638814644672063e+00
2.379374504089355469e-01,2.604385924862137269e+00
2.399401664733886719e-01,2.604354334396640436e+00
2.419383525848388672e-01,2.603915644158797615e+00
2.439398765563964844e-01,2.602608514143051277e+00
2.459425926208496094e-01,2.601430726221886314e+00
2.479417324066162109e-01,2.597900938737504273e+00
2.499394416809082031e-01,2.595877956852669310e+00
2.519390583038330078e-01,2.596187304995930756e+00
2.539350986480712891e-01,2.595065545447533761e+00
2.559392452239990234e-01,2.595099520099105828e+00
2.579419612884521484e-01,2.592122267737658969e+00
2.599399089813232422e-01,2.591392706798637757e+00
2.619392871856689453e-01,2.590643476324495875e+00
2.639386653900146484e-01,2.588641952114338007e+00
2.659392356872558594e-01,2.587544034426693340e+00
2.679431438446044922e-01,2.586204121852412552e+00
2.699382305145263672e-01,2.583545754378528070e+00
2.719399929046630859e-01,2.584474990901350022e+00
2.739388942718505859e-01,2.581810066915758650e+00
2.759404182434082031e-01,2.581775496217667776e+00
2.779381275177001953e-01,2.581386277840886034e+00
2.799403667449951172e-01,2.579870531543556833e+00
2.819383144378662109e-01,2.578405449200326327e+00
2.839400768280029297e-01,2.578132459894712181e+00
2.859377861022949219e-01,2.577626416400243592e+00
2.879419326782226562e-01,2.576403924990168015e+00
2.899372577667236328e-01,2.573590585421393406e+00
2.919397354125976562e-01,2.573203155184168089e+00
2.939379215240478516e-01,2.571927019587399776e+00
2.959403991699218750e-01,2.571096130740181174e+00
2.979385852813720703e-01,2.569846221190240421e+00
2.999708652496337891e-01,2.569274612578703376e+00
3.019628524780273438e-01,2.547595804643131068e+00
3.039426803588867188e-01,2.559497661530692803e+00
3.059403896331787109e-01,2.560038275723251822e+00
3.079409599304199219e-01,2.558371729656664151e+00
3.099403381347656250e-01,2.557083077083000866e+00
3.119394779205322266e-01,2.557716674532493961e+00
3.139383792877197266e-01,2.557161159176964738e+00
3.159496784210205078e-01,2.556962079639682806e+00
3.180015087127685547e-01,2.555582231948641869e+00
3.199605941772460938e-01,2.524109783662531914e+00
3.219487667083740234e-01,2.522046866660936804e+00
3.239417076110839844e-01,2.530404630947665101e+00
3.259415626525878906e-01,2.530489269553335863e+00
3.279402256011962891e-01,2.531354729098645340e+00
3.299398422241210938e-01,2.530823055603868443e+00
3.319396972656250000e-01,2.533515993775843800e+00
3.339393138885498047e-01,2.534347478669581211e+00
3.359453678131103516e-01,2.534964982863066485e+00
3.379342555999755859e-01,2.537617985918281693e+00
3.399376869201660156e-01,2.537900511968196771e+00
3.419396877288818359e-01,2.538765375466987440e+00
3.439412117004394531e-01,2.541307513869704326e+00
3.459379673004150391e-01,2.542954986447690136e+00
3.479440212249755859e-01,2.543515866221888633e+00
3.499386310577392578e-01,2.544815843679409273e+00
3.519401550292968750e-01,2.546156948346727678e+00
3.539378643035888672e-01,2.547431891850458818e+00
3.559398651123046875e-01,2.549737995831727666e+00
3.579387664794921875e-01,2.550215429093293018e+00
3.599407672882080078e-01,2.551673358878297826e+00
3.619382381439208984e-01,2.552899426567486252e+00
3.639423847198486328e-01,2.554176158210773373e+00
3.659381866455078125e-01,2.555127448454791228e+00
3.679397106170654297e-01,2.556028074744710388e+00
3.699386119842529297e-01,2.556547231262592312e+00
3.719403743743896484e-01,2.557795352672976641e+00
3.739378452301025391e-01,2.559771246882825757e+00
3.759400844573974609e-01,2.560955591315697610e+00
3.779380321502685547e-01,2.561218447830492018e+00
3.799405097961425781e-01,2.563382692740284519e+00
3.819389343261718750e-01,2.563875027164820075e+00
3.839433193206787109e-01,2.563560910649408164e+00
3.859369754791259766e-01,2.563935823909738509e+00
3.879406452178955078e-01,2.566256829053977562e+00
3.899431228637695312e-01,2.565307922996034939e+00
3.919751644134521484e-01,2.564886518107237556e+00
3.939526081085205078e-01,2.550032442812018907e+00
3.959395885467529297e-01,2.556030458930785620e+00
3.979389667510986328e-01,2.557692236625222826e+00
3.999395370483398438e-01,2.559252090364943832e+00
4.019386768341064453e-01,2.560285038982038408e+00
4.039394855499267578e-01,2.561376996204494993e+00
4.059393405914306641e-01,2.562252588540624210e+00
4.079418182373046875e-01,2.563094206225181360e+00
4.099380970001220703e-01,2.562986321805277079e+00
4.119431972503662109e-01,2.564640350894969778e+00
4.139382839202880859e-01,2.565145798342919115e+00
4.159400463104248047e-01,2.565902181375286695e+00
4.179382324218750000e-01,2.566328950682753351e+00
4.199409484863281250e-01,2.567418523719134704e+00
4.219388961791992188e-01,2.568050333029071375e+00
4.239401817321777344e-01,2.569341965835328701e+00
4.259376525878906250e-01,2.568761416526009533e+00
4.279420375823974609e-01,2.569445677929601324e+00
4.299383163452148438e-01,2.567410775114390198e+00
4.319405555725097656e-01,2.569578000256776740e+00
4.339385032653808594e-01,2.570656844455819545e+00
4.359405040740966797e-01,2.570877381667778572e+00
4.379372596740722656e-01,2.571340509812892527e+00
4.399394989013671875e-01,2.571037122134819164e+00
4.419376850128173828e-01,2.571484157023925299e+00
4.439401626586914062e-01,2.572130867496832174e+00
4.459431171417236328e-01,2.572829434016875361e+00
4.479446411132812500e-01,2.567671843489628181e+00
4.499397277832031250e-01,2.569210239554672093e+00
4.519398212432861328e-01,2.569509454907113799e+00
4.539394378662109375e-01,2.570676513990940215e+00
4.559395313262939453e-01,2.570562073059329045e+00
4.579384326934814453e-01,2.570882150039929037e+00
4.599392414093017578e-01,2.570974537250344305e+00
4.619407653808593750e-01,2.570986458180720469e+00
4.639642238616943359e-01,2.571427532604638522e+00
4.659411907196044922e-01,2.565346666019757471e+00
4.679412841796875000e-01,2.567099042785053520e+00
4.699382781982421875e-01,2.565543361370964170e+00
4.719400405883789062e-01,2.567153879064783872e+00
4.739382266998291016e-01,2.567489453254872878e+00
4.759430885314941406e-01,2.567368455811554817e+00
4.779384136199951172e-01,2.568030663493950705e+00
4.799401760101318359e-01,2.567944832795242327e+00
4.819376468658447266e-01,2.568759032339934301e+00
4.839401245117187500e-01,2.568703003967166332e+00
4.859378337860107422e-01,2.569598861884935026e+00
4.879400730133056641e-01,2.569396206068540245e+00
4.899380207061767578e-01,2.568057485587297073e+00
4.919407367706298828e-01,2.568698831641534674e+00
4.939384460449218750e-01,2.567603894186484048e+00
4.959402084350585938e-01,2.569020100715172283e+00
4.979379177093505859e-01,2.569127389088557756e+00
4.999406337738037109e-01,2.569561907000768919e+00
5.019381046295166016e-01,2.569157191414498165e+00
5.039393901824951172e-01,2.569519587697933538e+00
5.059390068054199219e-01,2.568666049083000225e+00
5.079405307769775391e-01,2.569438525371375626e+00
5.099377632141113281e-01,2.569349118393554399e+00
5.119407176971435547e-01,2.570255705148661640e+00
5.139381885528564453e-01,2.569697805607057184e+00
5.159411430358886719e-01,2.569477864441616966e+00
5.179376602172851562e-01,2.568986126063600217e+00
5.199406147003173828e-01,2.569154211181904124e+00
5.219388008117675781e-01,2.568704196060203948e+00
5.239393711090087891e-01,2.568722673502287002e+00
5.259387493133544922e-01,2.568604656291562982e+00
5.279388427734375000e-01,2.568587370942517545e+00
5.299396514892578125e-01,2.566923805108523915e+00
5.319402217864990234e-01,2.568430014661552185e+00
5.339374542236328125e-01,2.567960330004731340e+00
5.359401702880859375e-01,2.569026061180360365e+00
5.379376411437988281e-01,2.567278452787214782e+00
5.399413108825683594e-01,2.567600317907371199e+00
5.419383049011230469e-01,2.567474552091902673e+00
5.439407825469970703e-01,2.566699095570933231e+00
5.459380149841308594e-01,2.566938706271494119e+00
5.479404926300048828e-01,2.566232987193225235e+00
5.499379634857177734e-01,2.565402098346006632e+00
5.519399642944335938e-01,2.565723963466163049e+00
5.539386272430419922e-01,2.565450974160548903e+00
5.559403896331787109e-01,2.565135665552099375e+00
5.579390525817871094e-01,2.564117618097975004e+00
5.599415302276611328e-01,2.562486834822515824e+00
5.619378089904785156e-01,2.563680715999688609e+00
5.639400482177734375e-01,2.563239641575770555e+00
5.659415721893310547e-01,2.563351698321306493e+00
5.679399967193603516e-01,2.563337989251373905e+00
5.699384212493896484e-01,2.562262125284925141e+00
5.719399452209472656e-01,2.561885423885038371e+00
5.739383697509765625e-01,2.561670251091748618e+00
5.759396553039550781e-01,2.562132783190343766e+00
5.779383182525634766e-01,2.561804361558480458e+00
5.799398422241210938e-01,2.561818666674931855e+00
5.819385051727294922e-01,2.561562962718363146e+00
5.839400291442871094e-01,2.562839098315131459e+00
5.859384536743164062e-01,2.561325736203877490e+00
5.879402160644531250e-01,2.561016984107134853e+00
5.899374485015869141e-01,2.560476965961094642e+00
5.919399261474609375e-01,2.561037249688774331e+00
5.939395427703857422e-01,2.560177154562134128e+00
5.959398746490478516e-01,2.559123940363400074e+00
5.979382991790771484e-01,2.559529848042708444e+00
5.999412536621093750e-01,2.559444017344000066e+00
6.019384860992431641e-01,2.557888931976429525e+00
6.039407253265380859e-01,2.558399743843048135e+00
6.059381961822509766e-01,2.558864660127718516e+00
6.079406738281250000e-01,2.559134669200738621e+00
6.099379062652587891e-01,2.558170861979825794e+00
6.119401454925537109e-01,2.558433122448101393e+00
6.139383316040039062e-01,2.558152980584261549e+00
6.159403324127197266e-01,2.558548755472750180e+00
6.179380416870117188e-01,2.558178014538051492e+00
6.199407577514648438e-01,2.558836645941334531e+00
6.219377517700195312e-01,2.558705515707196732e+00
6.239399909973144531e-01,2.557618922903409420e+00
6.259379386901855469e-01,2.557620114996447036e+00
6.279406547546386719e-01,2.558080858955485759e+00
6.299388408660888672e-01,2.557177252432972558e+00
6.319396495819091797e-01,2.557067579873511853e+00
6.339378356933593750e-01,2.556478685912929372e+00
6.359398365020751953e-01,2.556239671258887292e+00
6.379380226135253906e-01,2.556557960099930860e+00
6.399435997009277344e-01,2.554799026822927921e+00
6.419377326965332031e-01,2.555553025669220268e+00
6.439399719238281250e-01,2.555813497997939443e+00
6.459419727325439453e-01,2.555632895902740565e+00
6.479411125183105469e-01,2.551499313294805837e+00
6.499383449554443359e-01,2.553515142621415102e+00
6.519389152526855469e-01,2.553979462859566674e+00
6.539387702941894531e-01,2.554399675655326440e+00
6.559388637542724609e-01,2.554049796348786039e+00
6.579391956329345703e-01,2.553833431462458670e+00
6.599380970001220703e-01,2.554380006120205771e+00
6.619400978088378906e-01,2.554374641701536497e+00
6.639404296875000000e-01,2.554700083100805763e+00
6.659376621246337891e-01,2.555004066825397935e+00
6.679408550262451172e-01,2.555069035895948026e+00
6.699397563934326172e-01,2.554191059373743578e+00
6.719405651092529297e-01,2.554815716125454550e+00
6.739377975463867188e-01,2.554199404025006892e+00
6.759393215179443359e-01,2.554341859143002047e+00
6.779375076293945312e-01,2.555169767757626609e+00
6.799399852752685547e-01,2.554796642636852688e+00
6.819379329681396484e-01,2.555274671944936848e+00
6.839401721954345703e-01,2.555094069849737970e+00
6.859374046325683594e-01,2.555673427066019521e+00
6.879386901855468750e-01,2.555684155903358068e+00
6.899387836456298828e-01,2.555170959850664225e+00
6.919403076171875000e-01,2.554689354263467216e+00
6.939380168914794922e-01,2.555569118925228089e+00
6.959400177001953125e-01,2.554220265653165178e+00
6.979379653930664062e-01,2.556146688001953216e+00
6.999402046203613281e-01,2.555722302880561791e+00
7.019379138946533203e-01,2.556034035209898470e+00
7.039399147033691406e-01,2.557146854060513341e+00
7.059381008148193359e-01,2.556732601729941656e+00
7.079391479492187500e-01,2.556079334745327891e+00
7.099392414093017578e-01,2.556094235908298096e+00
7.119410037994384766e-01,2.556448883586988963e+00
7.139384746551513672e-01,2.556781477544483927e+00
7.159402370452880859e-01,2.557340569179126000e+00
7.179367542266845703e-01,2.557296461736734194e+00
7.199394702911376953e-01,2.557393021272781120e+00
7.219376564025878906e-01,2.558183975003239574e+00
7.239398956298828125e-01,2.557570047088867149e+00
7.259383201599121094e-01,2.559059567339368790e+00
7.279405593872070312e-01,2.558460540587966570e+00
7.299385070800781250e-01,2.559221095945965807e+00
7.319412231445312500e-01,2.558339543144648509e+00
7.339384555816650391e-01,2.558161325235524863e+00
7.359397411346435547e-01,2.558425373843356887e+00
7.379372119903564453e-01,2.558615512682856696e+00
7.399401664733886719e-01,2.559804625487879015e+00
7.419371604919433594e-01,2.559466071065195969e+00
7.439393997192382812e-01,2.558934993616937881e+00
7.459461688995361328e-01,2.561096258294136341e+00
7.479403018951416016e-01,2.560235567120977329e+00
7.499389648437500000e-01,2.560370869680746786e+00
7.519407272338867188e-01,2.559846348744195588e+00
7.539377212524414062e-01,2.559231824783304354e+00
7.559406757354736328e-01,2.560246892004834685e+00
7.579376697540283203e-01,2.560155100840938225e+00
7.599399089813232422e-01,2.560822076895484578e+00
7.619383335113525391e-01,2.561074800619459246e+00
7.639391422271728516e-01,2.561431832484225346e+00
7.659339904785156250e-01,2.561484880624399274e+00
7.679367065429687500e-01,2.561388321088352349e+00
7.699434757232666016e-01,2.561085529456797794e+00
7.719404697418212891e-01,2.560493655263621271e+00
7.739384174346923828e-01,2.560714192475580298e+00
7.759399414062500000e-01,2.560449547821229466e+00
7.779383659362792969e-01,2.560261197121286081e+00
7.799401283264160156e-01,2.560620017125608605e+00
7.819373607635498047e-01,2.560853667360981412e+00
7.839395999908447266e-01,2.560872144803064465e+00
7.860493659973144531e-01,2.561841316442646566e+00
7.880711555480957031e-01,2.525449100190293894e+00
7.900671958923339844e-01,2.501051724082437033e+00
7.950730323791503906e-01,2.445212894107448243e+00
7.971107959747314453e-01,2.404900479900894172e+00
7.998683452606201172e-01,2.380563900537955746e+00
8.018176555633544922e-01,2.403599906396854724e+00
8.038177490234375000e-01,2.396956967944737560e+00
8.058080673217773438e-01,2.390473173913141736e+00
8.078620433807373047e-01,2.385238693384968300e+00
8.098323345184326172e-01,2.368518992485880048e+00
8.118228912353515625e-01,2.373912021388056459e+00
8.138515949249267578e-01,2.370116397156285970e+00
8.158588409423828125e-01,2.362645550089544244e+00
8.179185390472412109e-01,2.365206761980862993e+00
8.199241161346435547e-01,2.364356203598523720e+00
8.219614028930664062e-01,2.363950295919215350e+00
8.240351676940917969e-01,2.353830022076370820e+00
8.260126113891601562e-01,2.304564393110799081e+00
8.279640674591064453e-01,2.345693987094639166e+00
8.299040794372558594e-01,2.350725811806417820e+00
8.318669795989990234e-01,2.351579946467869942e+00
8.338603973388671875e-01,2.352867406948495610e+00
8.358461856842041016e-01,2.355258149535435219e+00
8.377988338470458984e-01,2.382122562184639136e+00
8.397932052612304688e-01,2.410099793684457925e+00
8.417911529541015625e-01,2.423695018731954143e+00
8.437922000885009766e-01,2.438745193331860683e+00
8.458085060119628906e-01,2.450891429292133772e+00
8.477971553802490234e-01,2.459829146841662872e+00
8.497927188873291016e-01,2.474387583063552665e+00
8.517923355102539062e-01,2.485228477147636283e+00
8.537905216217041016e-01,2.495974599835228958e+00
8.557901382446289062e-01,2.507107556713528140e+00
8.577888011932373047e-01,2.518819870808109318e+00
8.597893714904785156e-01,2.530174556991405144e+00
8.617894649505615234e-01,2.540506427348426133e+00
8.637895584106445312e-01,2.550162380953119090e+00
8.657889366149902344e-01,2.558809227801469355e+00
8.677892684936523438e-01,2.568171926518908244e+00
8.697884082794189453e-01,2.575027653578239928e+00
8.717889785766601562e-01,2.582929442278080412e+00
8.737883567810058594e-01,2.590951632374719704e+00
8.757882118225097656e-01,2.598564934559456585e+00
8.777885437011718750e-01,2.604966474171456436e+00
8.797881603240966797e-01,2.611540867273911104e+00
8.817889690399169922e-01,2.617327286878500914e+00
8.837900161743164062e-01,2.622989132760659814e+00
8.857908248901367188e-01,2.627325371184989322e+00
8.877911567687988281e-01,2.632920459857041706e+00
8.897876739501953125e-01,2.636623696878396927e+00
8.917894363403320312e-01,2.641101794374203227e+00
8.937966823577880859e-01,2.644343095343482108e+00
8.957891464233398438e-01,2.647117691888534186e+00
8.977892398834228516e-01,2.649762946339004888e+00
8.997893333435058594e-01,2.651124912634481579e+00
9.017868041992187500e-01,2.654101568949409629e+00
9.037885665893554688e-01,2.656618077351817764e+00
9.057872295379638672e-01,2.657459695036374914e+00
9.077887535095214844e-01,2.658737618772699651e+00
9.097867012023925781e-01,2.660291512047232576e+00
9.117889404296875000e-01,2.660170514603914516e+00
9.137871265411376953e-01,2.661523540201609084e+00
9.157879352569580078e-01,2.661926467648323413e+00
9.177861213684082031e-01,2.661550362294955452e+00
9.197874069213867188e-01,2.660835702518904444e+00
9.217910766601562500e-01,2.660125215068485094e+00
9.237875938415527344e-01,2.659305651105123847e+00
9.257850646972656250e-01,2.657984215972926112e+00
9.277873039245605469e-01,2.656915504564703046e+00
9.297854900360107422e-01,2.655227500823438280e+00
9.317867755889892578e-01,2.653280216846491957e+00
9.337859153747558594e-01,2.651629764035912107e+00
9.357872009277343750e-01,2.648994642376261144e+00
9.377844333648681641e-01,2.647548633521632500e+00
9.397864341735839844e-01,2.645842748384803489e+00
9.417853355407714844e-01,2.643082456956202808e+00
9.437856674194335938e-01,2.640732245532542155e+00
9.457840919494628906e-01,2.638268785270307504e+00
9.477856159210205078e-01,2.635648564773626745e+00
9.497835636138916016e-01,2.633406833816389181e+00
9.517855644226074219e-01,2.630064204938912908e+00
9.537832736968994141e-01,2.627580479095039223e+00
9.557852745056152344e-01,2.624694421850970016e+00
9.577839374542236328e-01,2.621957972283121663e+00
9.597845077514648438e-01,2.618657066661961963e+00
9.617834091186523438e-01,2.616148306864298334e+00
9.637842178344726562e-01,2.612499906122673465e+00
9.657826423645019531e-01,2.610975219127562141e+00
9.677844047546386719e-01,2.607281518850507407e+00
9.697823524475097656e-01,2.604175520440997982e+00
9.717838764190673828e-01,2.601061773426744050e+00
9.737815856933593750e-01,2.598887991772650619e+00
9.757831096649169922e-01,2.595983457086498358e+00
9.777815341949462891e-01,2.593439530544225047e+00
9.797832965850830078e-01,2.590369890972362921e+00
9.817812442779541016e-01,2.587521384658978629e+00
9.837832450866699219e-01,2.584433267645033450e+00
9.857807159423828125e-01,2.582837055067665144e+00
9.877824783325195312e-01,2.579578468749340825e+00
9.897813796997070312e-01,2.576801488018213071e+00
9.917819499969482422e-01,2.574171730777231382e+00
9.937808513641357422e-01,2.573191234253791926e+00
9.957821369171142578e-01,2.570954271668704827e+00
9.977807998657226562e-01,2.567986556051558900e+00
9.997820854187011719e-01,2.566262789519165644e+00
1.001779079437255859e+00,2.564027019027116161e+00
1.003781557083129883e+00,2.562125034585599259e+00
1.005779743194580078e+00,2.559890456186587393e+00
1.007781267166137695e+00,2.558114833607057825e+00
1.009779214859008789e+00,2.557549185460708863e+00
1.011781930923461914e+00,2.554529017749907815e+00
1.013779401779174805e+00,2.553432292155300765e+00
1.015780448913574219e+00,2.551709121669426317e+00
1.017778635025024414e+00,2.549899524438324683e+00
1.019779682159423828e+00,2.549034660939534014e+00
1.021778821945190430e+00,2.548075622090771652e+00
1.023779630661010742e+00,2.546493714629854299e+00
1.025777339935302734e+00,2.546246951371067713e+00
1.027779340744018555e+00,2.544738953678483018e+00
1.029777765274047852e+00,2.541735475270208600e+00
1.031778573989868164e+00,2.541517322244324806e+00
1.033776760101318359e+00,2.541511957825655532e+00
1.035778284072875977e+00,2.540895049678689066e+00
1.037776708602905273e+00,2.540125553622907706e+00
1.039778947830200195e+00,2.540076081761846627e+00
1.041776657104492188e+00,2.539570038267378482e+00
1.043778181076049805e+00,2.539731566873975499e+00
1.045793533325195312e+00,2.539189164541860055e+00
1.047779083251953125e+00,2.538397614764882793e+00
1.049775123596191406e+00,2.537993495225130847e+00
1.051775217056274414e+00,2.537311618007614289e+00
1.053773641586303711e+00,2.538793985699890232e+00
1.055773973464965820e+00,2.538906638491944978e+00
1.057773351669311523e+00,2.537972037550453752e+00
1.059776306152343750e+00,2.539046113377346092e+00
1.061776399612426758e+00,2.538724844303708483e+00
1.063777685165405273e+00,2.538914983143208293e+00
1.065776109695434570e+00,2.539204661751349068e+00
1.067776918411254883e+00,2.540064160831470463e+00
1.069774150848388672e+00,2.540462915952553136e+00
1.071776151657104492e+00,2.539261286170635845e+00
1.073773860931396484e+00,2.541246717124785892e+00
1.075776576995849609e+00,2.541323607125712147e+00
1.077774286270141602e+00,2.542329733649460355e+00
1.079775333404541016e+00,2.542288010393143782e+00
1.081773996353149414e+00,2.542634909467090143e+00
1.083775281906127930e+00,2.543536131803528111e+00
1.085773468017578125e+00,2.543775146457570191e+00
1.087774753570556641e+00,2.544460599954199598e+00
1.089772224426269531e+00,2.544874256238252475e+00
1.091773986816406250e+00,2.544770544143979851e+00
1.093772888183593750e+00,2.545203273916634590e+00
1.095774412155151367e+00,2.546339934628001789e+00
1.097772359848022461e+00,2.546744054167753735e+00
1.099773883819580078e+00,2.547864025576594749e+00
1.101771354675292969e+00,2.546162312765396951e+00
1.103773832321166992e+00,2.548052376276538133e+00
1.105771303176879883e+00,2.548481529770080023e+00
1.107772827148437500e+00,2.549775546762412581e+00
1.109770774841308594e+00,2.549822038390879619e+00
1.111772537231445312e+00,2.549898332345287066e+00
1.113770484924316406e+00,2.550838893751966374e+00
1.115772485733032227e+00,2.552142447488599863e+00
1.117770433425903320e+00,2.553305334246794622e+00
1.119772195816040039e+00,2.553744024484637443e+00
1.121770143508911133e+00,2.553659981925485489e+00
1.123774528503417969e+00,2.554205960536713782e+00
1.125770330429077148e+00,2.554100460302884734e+00
1.127772092819213867e+00,2.555122084036121954e+00
1.129770278930664062e+00,2.554800218915965537e+00
1.131771326065063477e+00,2.556166953583592694e+00
1.133769035339355469e+00,2.557249374061748348e+00
1.135771036148071289e+00,2.557801313138164723e+00
1.137768745422363281e+00,2.557897872674211648e+00
1.139770269393920898e+00,2.556648559170789703e+00
1.141768693923950195e+00,2.558367557331032494e+00
1.143770217895507812e+00,2.559070892223226146e+00
1.145768404006958008e+00,2.559362358970923346e+00
1.147769927978515625e+00,2.560510940612666708e+00
1.149768352508544922e+00,2.560568757124991102e+00
1.151769399642944336e+00,2.559762306185043634e+00
1.153768301010131836e+00,2.561350770157667434e+00
1.155769109725952148e+00,2.561384148762720692e+00
1.157767295837402344e+00,2.561905093420159041e+00
1.159768342971801758e+00,2.562266893657075606e+00
1.161767244338989258e+00,2.562917180409095330e+00
1.163768053054809570e+00,2.563477464136775019e+00
1.165766716003417969e+00,2.564183183215043904e+00
1.167768716812133789e+00,2.564668365081353762e+00
1.169766902923583984e+00,2.564804263687642027e+00
1.171767950057983398e+00,2.566089936028711271e+00
1.173766136169433594e+00,2.566243716030563782e+00
1.175767898559570312e+00,2.568053909308184224e+00
1.177765369415283203e+00,2.568472333964387566e+00
1.179767370223999023e+00,2.568979569551893327e+00
1.181765556335449219e+00,2.569423028161886613e+00
1.183766603469848633e+00,2.570327826777437430e+00
1.185765027999877930e+00,2.571583696792566265e+00
1.187767028808593750e+00,2.571999737262694374e+00
1.189764976501464844e+00,2.573812910772908857e+00
1.191766023635864258e+00,2.574006625891521516e+00
1.193765163421630859e+00,2.574457833106259308e+00
1.195766448974609375e+00,2.576800295925175455e+00
1.197764396667480469e+00,2.577460119421496110e+00
1.199766397476196289e+00,2.579183885953889810e+00
1.201763629913330078e+00,2.579806754566044358e+00
1.203765630722045898e+00,2.578602144551533026e+00
1.205763578414916992e+00,2.581247399002003728e+00
1.207765579223632812e+00,2.583200643444138134e+00
1.209763765335083008e+00,2.582981298325216724e+00
1.211765050888061523e+00,2.584043453221732900e+00
1.213761091232299805e+00,2.585126469746407363e+00
1.215763092041015625e+00,2.586592148136156677e+00
1.217763900756835938e+00,2.585948417895843843e+00
1.219763755798339844e+00,2.587084482560692233e+00
1.221761941909790039e+00,2.588773082348475807e+00
1.223763465881347656e+00,2.589341114680900002e+00
1.225761890411376953e+00,2.590232800273037039e+00
1.227762460708618164e+00,2.591722320523538681e+00
1.229761838912963867e+00,2.593309592403124864e+00
1.231763362884521484e+00,2.593980740783302874e+00
1.233760833740234375e+00,2.595221709635461504e+00
1.235763072967529297e+00,2.595710467780884212e+00
1.237760543823242188e+00,2.596565794535373950e+00
1.239762544631958008e+00,2.598619770839186938e+00
1.241760253906250000e+00,2.598812293864761980e+00
1.243761301040649414e+00,2.599652719456281513e+00
1.245759725570678711e+00,2.600666594584774227e+00
1.247769355773925781e+00,2.601818156459111631e+00
1.249761581420898438e+00,2.600974154588479248e+00
1.251760244369506836e+00,2.602180552742547004e+00
1.253759384155273438e+00,2.602094125997319818e+00
1.255759239196777344e+00,2.603048396473931714e+00
1.257759571075439453e+00,2.602685404143977532e+00
1.259760618209838867e+00,2.604096842300515302e+00
1.261761188507080078e+00,2.604400826025107474e+00
1.263762235641479492e+00,2.604689312540210633e+00
1.265758991241455078e+00,2.605102968824263510e+00
1.267760753631591797e+00,2.604531956259245273e+00
1.269759893417358398e+00,2.605122042312865371e+00
1.271760463714599609e+00,2.604292345558684385e+00
1.273759603500366211e+00,2.603811932064524992e+00
1.275759935379028320e+00,2.603962731833783462e+00
1.277764081954956055e+00,2.604145718115057573e+00
1.279762744903564453e+00,2.601596427154114988e+00
1.281759738922119141e+00,2.601175618311836413e+00
1.283760070800781250e+00,2.600623083188901230e+00
1.285757303237915039e+00,2.600490164815207006e+00
1.287758827209472656e+00,2.599567484804091944e+00
1.289757251739501953e+00,2.598591160606284145e+00
1.291758775711059570e+00,2.597776961061592171e+00
1.293756961822509766e+00,2.597276281985793300e+00
1.295758724212646484e+00,2.596494268953116968e+00
1.297756433486938477e+00,2.595829081038127040e+00
1.299757957458496094e+00,2.595627021268251067e+00
1.301756858825683594e+00,2.594190549157923353e+00
1.303757905960083008e+00,2.593187998913287995e+00
1.305755853652954102e+00,2.590432475856837780e+00
1.307757854461669922e+00,2.591240714936341671e+00
1.309756040573120117e+00,2.590900968420621009e+00
1.311757564544677734e+00,2.589844773989292914e+00
1.313755750656127930e+00,2.588211606527758502e+00
1.315756797790527344e+00,2.587131570235678080e+00
1.317755460739135742e+00,2.586431215576078468e+00
1.319757223129272461e+00,2.585379789516900839e+00
1.321754932403564453e+00,2.584527442995005142e+00
1.323756217956542969e+00,2.583799074149021546e+00
1.325754404067993164e+00,2.582286904130805194e+00
1.327757120132446289e+00,2.578888246880560953e+00
1.329753875732421875e+00,2.579508731306640268e+00
1.331755638122558594e+00,2.578505585015486101e+00
1.333753585815429688e+00,2.577528068724640242e+00
1.335755586624145508e+00,2.576477238711981421e+00
1.337753772735595703e+00,2.575592109631551274e+00
1.339755296707153320e+00,2.574860760552973638e+00
1.341753721237182617e+00,2.574660488922654089e+00
1.343754768371582031e+00,2.573626944259040705e+00
1.345758676528930664e+00,2.572603532386247061e+00
1.347755670547485352e+00,2.569814630724743587e+00
1.349753379821777344e+00,2.564395375775739616e+00
1.351752758026123047e+00,2.561828799465751594e+00
1.353755235671997070e+00,2.550799554681725034e+00
1.355753898620605469e+00,2.548592990469097153e+00
1.357751846313476562e+00,2.545866673692068094e+00
1.359753608703613281e+00,2.537492816149331976e+00
1.361752510070800781e+00,2.522929611555291718e+00
1.363753557205200195e+00,2.519086303602016574e+00
1.365752458572387695e+00,2.513175906321514219e+00
1.367752552032470703e+00,2.508999408364225303e+00
1.369755506515502930e+00,2.504367530866566938e+00
1.371754884719848633e+00,2.483443317823805341e+00
1.373749971389770508e+00,2.497881948695415133e+00
1.375752687454223633e+00,2.496307789839242730e+00
1.377749919891357422e+00,2.400401520776930031e+00
1.379752635955810547e+00,2.457214886810170196e+00
1.381771326065063477e+00,2.461329395929503061e+00
1.383756160736083984e+00,2.453880602583957238e+00
1.385749340057373047e+00,2.460830504993260615e+00
1.387753725051879883e+00,2.442130141512172337e+00
1.389747619628906250e+00,2.442949109429014776e+00
1.391772270202636719e+00,2.442552738494007336e+00
1.393756628036499023e+00,2.413392950700873119e+00
1.395750761032104492e+00,2.443186931990019239e+00
1.397749423980712891e+00,2.431317261614473146e+00
1.399749755859375000e+00,2.359792275404009487e+00
1.401750087738037109e+00,2.420910885442600691e+00
1.403749465942382812e+00,2.422362854762417861e+00
1.405749320983886719e+00,2.419858863336904253e+00
1.407750129699707031e+00,2.436014108182681603e+00
1.409748315811157227e+00,2.444021993162869499e+00
1.411749839782714844e+00,2.440251402884888954e+00
1.413747787475585938e+00,2.453828746536820926e+00
1.415749311447143555e+00,2.461788947795504168e+00
1.417746782302856445e+00,2.466661628086761038e+00
1.419749259948730469e+00,2.372994109749091862e+00
1.421746969223022461e+00,2.442864470823344014e+00
1.423747062683105469e+00,2.453366810484744587e+00
1.425747632980346680e+00,2.462509568036743257e+00
1.427748203277587891e+00,2.471449073725828338e+00
1.429746150970458984e+00,2.479625639870838949e+00
1.431748390197753906e+00,2.488646803933001195e+00
1.433746337890625000e+00,2.495887577043482963e+00
1.435747146606445312e+00,2.504875362500591507e+00
1.437745571136474609e+00,2.512418331196109023e+00
1.439746141433715820e+00,2.427601507616222953e+00
1.441745758056640625e+00,2.485968170877477235e+00
1.443747520446777344e+00,2.497648894506561135e+00
1.445744514465332031e+00,2.506751716941799657e+00
1.447836160659790039e+00,2.515315713324035585e+00
1.449744939804077148e+00,2.520163955708021764e+00
1.451744079589843750e+00,2.530992332815209966e+00
1.453743457794189453e+00,2.537621562197394542e+00
1.455743074417114258e+00,2.545341556708998088e+00
1.457742452621459961e+00,2.551729387251065795e+00
1.459743261337280273e+00,2.556189603351307404e+00
1.461744308471679688e+00,2.463314230837134300e+00
1.463745117187500000e+00,2.529316250004321365e+00
1.465743780136108398e+00,2.538198535227600861e+00
1.467745304107666016e+00,2.545193141125814851e+00
1.469743728637695312e+00,2.553176588198732055e+00
1.471745491027832031e+00,2.559888072000512160e+00
1.473743200302124023e+00,2.565806217885758578e+00
1.475744009017944336e+00,2.572110601915192696e+00
1.477742433547973633e+00,2.577559063143618268e+00
1.479744195938110352e+00,2.584126303687847237e+00
1.481741905212402344e+00,2.496127783790562660e+00
1.483743429183959961e+00,2.553035921220293325e+00
1.485741376876831055e+00,2.562449879938349717e+00
1.487743616104125977e+00,2.569135137693302262e+00
1.489741325378417969e+00,2.575608798934077903e+00
1.491743326187133789e+00,2.581883976684090864e+00
1.493741750717163086e+00,2.586720894184219244e+00
1.495743036270141602e+00,2.591468404706526396e+00
1.497740268707275391e+00,2.596066307552612695e+00
1.499742507934570312e+00,2.601294231569079241e+00
1.501740694046020508e+00,2.601698351108831186e+00
1.503741741180419922e+00,2.510838211874748538e+00
1.505740165710449219e+00,2.570933410040546541e+00
1.507741928100585938e+00,2.576515385689185145e+00
1.509739637374877930e+00,2.583030770186277802e+00
1.511827707290649414e+00,2.587620924427619595e+00
1.513740301132202148e+00,2.591569732614723787e+00
1.515741586685180664e+00,2.597331714312042461e+00
1.517739295959472656e+00,2.600830507377446477e+00
1.519740581512451172e+00,2.604084921370139138e+00
1.521739006042480469e+00,2.607768488856373690e+00
1.523740291595458984e+00,2.610757662148197156e+00
1.525738000869750977e+00,2.613649083810935636e+00
1.527739763259887695e+00,2.616662695010029793e+00
1.529738664627075195e+00,2.523094120394482776e+00
1.531739711761474609e+00,2.580534527365509145e+00
1.533737897872924805e+00,2.585647414403845712e+00
1.535738706588745117e+00,2.589344690960012851e+00
1.537737846374511719e+00,2.592525195184373299e+00
1.539738893508911133e+00,2.595677089175830954e+00
1.541736841201782227e+00,2.598404598045897185e+00
1.543738126754760742e+00,2.599293303405440181e+00
1.545737028121948242e+00,2.534305159366745830e+00
1.547738313674926758e+00,2.548348611396385799e+00
1.549736261367797852e+00,2.569444485836563707e+00
1.551738739013671875e+00,2.538842265467913695e+00
1.553736686706542969e+00,2.544876044377808899e+00
1.555738210678100586e+00,2.552466696794831513e+00
1.557736635208129883e+00,2.558929629198268607e+00
1.559737682342529297e+00,2.563139505760610781e+00
1.561735868453979492e+00,2.567795821165540282e+00
1.563735961914062500e+00,2.570546575849840032e+00
1.565735816955566406e+00,2.554664916356196080e+00
1.567735910415649414e+00,2.414290596758198237e+00
1.569734334945678711e+00,2.509293855344516544e+00
1.571736812591552734e+00,2.472235259084136327e+00
1.573734521865844727e+00,2.498481571493336162e+00
1.575736522674560547e+00,2.506523431125096124e+00
1.577734947204589844e+00,2.486819325306335315e+00
1.579736948013305664e+00,2.497219741013019245e+00
1.581733942031860352e+00,2.508631647662120656e+00
1.583738088607788086e+00,2.516251506358564871e+00
1.585734605789184570e+00,2.523459496910512190e+00
1.587735176086425781e+00,2.489939628832296137e+00
1.589733123779296875e+00,2.415436198167347559e+00
1.591734170913696289e+00,2.472498711645449543e+00
1.593733787536621094e+00,2.469475563702054455e+00
1.595734834671020508e+00,2.485354242963104809e+00
1.597732782363891602e+00,2.474970516558947065e+00
1.599733591079711914e+00,2.469202574396440308e+00
1.601733684539794922e+00,2.477735576359698211e+00
1.603734254837036133e+00,2.494854032379869579e+00
1.605731725692749023e+00,2.494002877951011499e+00
1.607733488082885742e+00,2.511861027701023374e+00
1.609731197357177734e+00,2.386719272937687819e+00
1.611742258071899414e+00,2.458152467984255463e+00
1.613732814788818359e+00,2.450710231150416085e+00
1.615732669830322266e+00,2.470270093711625758e+00
1.617731571197509766e+00,2.436157755393714375e+00
1.619733333587646484e+00,2.478171882411465798e+00
1.621730327606201172e+00,2.485222516682448202e+00
1.623732805252075195e+00,2.488188444160037704e+00
1.625730514526367188e+00,2.506980002758503190e+00
1.627731800079345703e+00,2.508930863014562362e+00
1.629730701446533203e+00,2.522791328762928220e+00
1.631731271743774414e+00,2.529425326517263262e+00
1.633729934692382812e+00,2.530837360720319840e+00
1.635731220245361328e+00,2.547109430683783593e+00
1.637729883193969727e+00,2.556940621965005711e+00
1.639731645584106445e+00,2.566540547196930255e+00
1.641729593276977539e+00,2.492037116531982122e+00
1.643730163574218750e+00,2.537271086844335333e+00
1.645729541778564453e+00,2.554678029379609860e+00
1.647741794586181641e+00,2.565124340668242020e+00
1.649730205535888672e+00,2.569949933284513044e+00
1.651726484298706055e+00,2.581872651800233509e+00
1.653724670410156250e+00,2.588308762110324235e+00
1.655725479125976562e+00,2.597130846635204104e+00
1.657726049423217773e+00,2.604652357656044526e+00
1.659727334976196289e+00,2.611546827739099186e+00
1.661727666854858398e+00,2.617937638513760490e+00
1.663727521896362305e+00,2.623629286721859799e+00
1.665727376937866211e+00,2.537814681269488393e+00
1.667727947235107422e+00,2.591426681450209824e+00
1.669726371765136719e+00,2.602696729027834888e+00
1.671727418899536133e+00,2.609045220499660811e+00
1.673725843429565430e+00,2.604848456960732417e+00
1.675727128982543945e+00,2.515471281465444520e+00
1.677724599838256836e+00,2.585792849754434908e+00
1.679726600646972656e+00,2.593424033334736034e+00
1.681725263595581055e+00,2.600359630627588015e+00
1.683726072311401367e+00,2.605749679297170385e+00
1.685724735260009766e+00,2.611111713780369215e+00
1.687726020812988281e+00,2.615610672904333356e+00
1.689724206924438477e+00,2.620601370406314246e+00
1.691724777221679688e+00,2.625291660462815813e+00
1.693723201751708984e+00,2.627998307704723757e+00
1.695725440979003906e+00,2.631886319146909514e+00
1.697723388671875000e+00,2.635154442209534764e+00
1.699724912643432617e+00,2.638682441554360381e+00
1.701723337173461914e+00,2.640519456925327191e+00
1.703725099563598633e+00,2.535598580312559580e+00
1.705722808837890625e+00,2.603471589502285521e+00
1.707724571228027344e+00,2.607698751413673133e+00
1.709722995758056641e+00,2.610479904470432544e+00
1.711724042892456055e+00,2.613656236369161334e+00
1.713722229003906250e+00,2.615999295234596289e+00
1.715723752975463867e+00,2.616246654539901684e+00
1.717721223831176758e+00,2.618128373399779107e+00
1.719723463058471680e+00,2.622052743679612163e+00
1.721721172332763672e+00,2.536557619161321941e+00
1.723723173141479492e+00,2.578770229669836933e+00
1.725721359252929688e+00,2.588961433048419192e+00
1.727722406387329102e+00,2.592397045182829540e+00
1.729721069335937500e+00,2.595700931036583281e+00
1.731722831726074219e+00,2.598012399436521402e+00
1.733721256256103516e+00,2.600739312260068825e+00
1.735721588134765625e+00,2.603879285321150316e+00
1.737720012664794922e+00,2.605761004181027740e+00
1.739721298217773438e+00,2.606720639076308910e+00
1.741720199584960938e+00,2.595634769872995573e+00
1.743721246719360352e+00,2.593893121945038072e+00
1.745719671249389648e+00,2.592402409601498814e+00
1.747720718383789062e+00,2.497437894038903039e+00
1.749719858169555664e+00,2.548759883494363443e+00
1.751720190048217773e+00,2.552019065859206570e+00
1.753719568252563477e+00,2.552608555866307860e+00
1.755720376968383789e+00,2.552699750983685512e+00
1.757718801498413086e+00,2.553264207036996858e+00
1.759719848632812500e+00,2.550871080263982016e+00
1.761718034744262695e+00,2.492589055608398496e+00
1.763720273971557617e+00,2.488949595564555750e+00
1.765717744827270508e+00,2.515957059378273630e+00
1.767719268798828125e+00,2.519250812441207632e+00
1.769717931747436523e+00,2.521379294559871642e+00
1.771718978881835938e+00,2.523443403654504369e+00
1.773729801177978516e+00,2.525973025080326284e+00
1.775720596313476562e+00,2.526826563695259598e+00
1.777717113494873047e+00,2.529656592566560835e+00
1.779718160629272461e+00,2.531438175611278485e+00
1.781716346740722656e+00,2.534449998670816218e+00
1.783718347549438477e+00,2.536005084038386759e+00
1.785716295242309570e+00,2.536872331723252660e+00
1.787719011306762695e+00,2.539212410356093574e+00
1.789716720581054688e+00,2.541399305033600786e+00
1.791717767715454102e+00,2.543168371101423464e+00
1.793716430664062500e+00,2.544081514368237595e+00
1.795717000961303711e+00,2.544399207162762355e+00
1.797715902328491211e+00,2.516935171715637853e+00
1.799716949462890625e+00,2.460757191271447208e+00
1.801714897155761719e+00,2.508693636500076707e+00
1.803716659545898438e+00,2.515054644948797602e+00
1.805715560913085938e+00,2.518902721274223655e+00
1.807715415954589844e+00,2.489776908132661504e+00
1.809716224670410156e+00,2.421225598004531410e+00
1.811717748641967773e+00,2.482542691533886181e+00
1.813718557357788086e+00,2.449794703697526721e+00
1.815715789794921875e+00,2.474822100975763828e+00
1.817714452743530273e+00,2.474808391905831240e+00
1.819715976715087891e+00,2.446339422027995703e+00
1.821713209152221680e+00,2.438575320074000352e+00
1.823714733123779297e+00,2.392322110214485154e+00
1.825713872909545898e+00,2.454585129569188506e+00
1.827714920043945312e+00,2.448350482982454501e+00
1.829712390899658203e+00,2.465095217835333141e+00
1.831714153289794922e+00,2.477783856127721673e+00
1.833712816238403320e+00,2.489923535576288316e+00
1.835738182067871094e+00,2.495484053550249826e+00
1.837790489196777344e+00,2.482359705252612070e+00
1.839784622192382812e+00,2.463459070141204688e+00
1.841807603836059570e+00,2.441915564765401392e+00
1.843794822692871094e+00,2.436558298654353472e+00
1.845792293548583984e+00,2.428211263204963721e+00
1.848542928695678711e+00,2.433758072108992643e+00
1.850498676300048828e+00,2.428948572748729440e+00
1.852723360061645508e+00,2.457371050998097939e+00
1.854710817337036133e+00,2.479490337311069492e+00
1.856710672378540039e+00,2.496267258675963774e+00
1.858709335327148438e+00,2.506081164608140455e+00
1.860709428787231445e+00,2.519951167100807243e+00
1.862708806991577148e+00,2.526487413226057743e+00
1.864708900451660156e+00,2.539757196874284251e+00
1.866708755493164062e+00,2.548877900705087463e+00
1.868711233139038086e+00,2.545782631132916141e+00
1.870707273483276367e+00,2.548039859299643162e+00
1.872715473175048828e+00,2.562858767850252129e+00
1.874740362167358398e+00,2.566697307431376807e+00
1.876715421676635742e+00,2.564210601354909080e+00
1.878707408905029297e+00,2.580570886203156444e+00
1.880708932876586914e+00,2.591108392609166255e+00
1.882709026336669922e+00,2.597117137565271516e+00
1.884707927703857422e+00,2.606117439999275032e+00
1.886707305908203125e+00,2.610586596797299208e+00
1.888710975646972656e+00,2.613559676833114409e+00
1.890709400177001953e+00,2.614450170332213830e+00
1.892709016799926758e+00,2.624401166963716392e+00
1.894708871841430664e+00,2.627968505378783348e+00
1.896708250045776367e+00,2.634368852897745583e+00
1.898708820343017578e+00,2.635178284070287091e+00
1.900708198547363281e+00,2.640132026688101874e+00
1.902708053588867188e+00,2.643900232780007631e+00
1.904708385467529297e+00,2.647946196549677556e+00
1.906709909439086914e+00,2.649477440056495769e+00
1.908707141876220703e+00,2.652584034512524003e+00
1.910706520080566406e+00,2.641966657872993895e+00
1.912706851959228516e+00,2.650591451000148258e+00
1.914706707000732422e+00,2.650145012157560931e+00
1.916706562042236328e+00,2.652686554513759010e+00
1.918706417083740234e+00,2.652803379631445413e+00
1.920707464218139648e+00,2.655405718732561926e+00
1.922705650329589844e+00,2.655076701054179811e+00
1.924707412719726562e+00,2.655705530131522440e+00
1.926706314086914062e+00,2.656368333860437136e+00
1.928707599639892578e+00,2.656259257347495240e+00
1.930706739425659180e+00,2.649808841920953117e+00
1.932705163955688477e+00,2.644147592085313025e+00
1.934705018997192383e+00,2.646156864900215400e+00
1.936705827713012695e+00,2.646376210019136810e+00
1.938704490661621094e+00,2.645765858383877234e+00
1.940705776214599609e+00,2.643603997660159965e+00
1.942704200744628906e+00,2.642301039970045284e+00
1.944705486297607422e+00,2.641946392291354417e+00
1.946704149246215820e+00,2.639748768776508214e+00
1.948705434799194336e+00,2.638506607831311968e+00
1.950703144073486328e+00,2.630613163782735242e+00
1.952703475952148438e+00,2.628354743522971049e+00
1.954703807830810547e+00,2.626161292333756947e+00
1.956704616546630859e+00,2.624779656503159586e+00
1.958702802658081055e+00,2.623449280673179729e+00
1.960703849792480469e+00,2.621809556699938426e+00
1.962703227996826172e+00,2.620064332492868076e+00
1.964703798294067383e+00,2.617057277805480808e+00
1.966702938079833984e+00,2.614553286379967645e+00
1.968703508377075195e+00,2.612428976586935292e+00
1.970701456069946289e+00,2.610168172141095866e+00
1.972702026367187500e+00,2.597207736636130360e+00
1.974702119827270508e+00,2.597596955012912101e+00
1.976702451705932617e+00,2.596248101740849190e+00
1.978700876235961914e+00,2.594953488701997824e+00
1.980702161788940430e+00,2.592914413561155040e+00
1.982700347900390625e+00,2.589973520037355481e+00
1.984702110290527344e+00,2.587794373964592776e+00
1.986701250076293945e+00,2.585161636491017045e+00
1.988702058792114258e+00,2.583338926236501631e+00
1.990700483322143555e+00,2.581424424818089758e+00
1.992701053619384766e+00,2.563388653205472600e+00
1.994699954986572266e+00,2.572352596801828817e+00
1.996700763702392578e+00,2.571100303065812831e+00
1.998699665069580078e+00,2.569774695607983439e+00
2.000701189041137695e+00,2.567040034179691510e+00
2.002699375152587891e+00,2.565555878347859142e+00
2.004700660705566406e+00,2.564494319497861774e+00
2.006699085235595703e+00,2.562060065515049168e+00
2.008701086044311523e+00,2.561589784811709514e+00
2.010698556900024414e+00,2.560038275723251822e+00
2.012699604034423828e+00,2.556180066607006474e+00
2.014698505401611328e+00,2.553771442624502619e+00
2.016699790954589844e+00,2.553279704246485871e+00
2.018697500228881836e+00,2.552748030751708974e+00
2.020699024200439453e+00,2.551160162825603983e+00
2.022697448730468750e+00,2.549799388623164909e+00
2.024698734283447266e+00,2.549637860016567892e+00
2.026697397232055664e+00,2.547807401157307972e+00
2.028699159622192383e+00,2.546987837193946724e+00
2.030697345733642578e+00,2.545134728566971649e+00
2.032697677612304688e+00,2.544868295773064393e+00
2.034698963165283203e+00,2.543265526683989197e+00
2.036697387695312500e+00,2.543268506916583238e+00
2.038696527481079102e+00,2.542583053419953831e+00
2.040698289871215820e+00,2.541881506667316604e+00
2.042695283889770508e+00,2.541650836664537838e+00
2.044697523117065430e+00,2.540305559671587776e+00
2.046695470809936523e+00,2.540159528274479772e+00
2.048709630966186523e+00,2.540259664089639546e+00
2.050699710845947266e+00,2.534576360532803552e+00
2.052696704864501953e+00,2.538683717093910719e+00
2.054693937301635742e+00,2.536343042414550997e+00
2.056694507598876953e+00,2.538648550349301036e+00
2.058692932128906250e+00,2.538035814527966227e+00
2.060693740844726562e+00,2.537834946851127871e+00
2.062692642211914062e+00,2.535714809383727175e+00
2.064694643020629883e+00,2.536391918229093267e+00
2.066695451736450195e+00,2.536566559859104064e+00
2.068695783615112305e+00,2.537429635218338309e+00
2.070693969726562500e+00,2.537095849167805728e+00
2.072695493698120117e+00,2.537317578472802371e+00
2.074694395065307617e+00,2.536841933350793443e+00
2.076695680618286133e+00,2.537843291502391185e+00
2.078691244125366211e+00,2.538866703375184830e+00
2.080693006515502930e+00,2.538997237562803821e+00
2.082694530487060547e+00,2.538707558954663046e+00
2.084693908691406250e+00,2.539754812688209018e+00
2.086692333221435547e+00,2.540112440599493926e+00
2.088693857192993164e+00,2.540352647346573622e+00
2.090692520141601562e+00,2.541060750610917740e+00
2.092693090438842773e+00,2.541448776894661865e+00
2.094692945480346680e+00,2.541861241085677126e+00
2.096693992614746094e+00,2.542540138070599642e+00
2.098692417144775391e+00,2.542037074808725539e+00
2.100692987442016602e+00,2.543334072033652138e+00
2.102691173553466797e+00,2.543137972728964247e+00
2.104692220687866211e+00,2.543076579937527004e+00
2.106691122055053711e+00,2.543915813436008921e+00
2.108692407608032227e+00,2.544040983204958639e+00
2.110690355300903320e+00,2.544557755536765331e+00
2.112691879272460938e+00,2.546286886487827861e+00
2.114691734313964844e+00,2.545959060902483362e+00
2.116691827774047852e+00,2.545121615543557869e+00
2.118690490722656250e+00,2.545295065080531050e+00
2.120692014694213867e+00,2.546750014632941816e+00
2.122690200805664062e+00,2.547911113251580595e+00
2.124691009521484375e+00,2.548000520229401822e+00
2.126689434051513672e+00,2.548657959539647244e+00
2.128690481185913086e+00,2.549084728847113901e+00
2.130688667297363281e+00,2.549524015131475529e+00
2.132689237594604492e+00,2.550007408858228963e+00
2.134690046310424805e+00,2.547657197434568310e+00
2.136692047119140625e+00,2.550670808633662467e+00
2.138688325881958008e+00,2.550959295148765626e+00
2.140690088272094727e+00,2.551079100499046071e+00
2.142688751220703125e+00,2.552411264468582353e+00
2.144689798355102539e+00,2.553475803551173762e+00
2.146688699722290039e+00,2.553988403557348796e+00
2.148689031600952148e+00,2.554564184494517498e+00
2.150687694549560547e+00,2.555113739384858640e+00
2.152688741683959961e+00,2.555098242175369627e+00
2.154687881469726562e+00,2.555466002877474274e+00
2.156688928604125977e+00,2.555646008926154344e+00
2.158686876296997070e+00,2.556248015910150606e+00
2.160688400268554688e+00,2.557214207317138666e+00
2.162686824798583984e+00,2.556898898708689138e+00
2.164690494537353516e+00,2.557322687783561754e+00
2.166686296463012695e+00,2.557384676621517805e+00
2.168687105178833008e+00,2.558170265933306986e+00
2.170686244964599609e+00,2.558123178258321140e+00
2.172687768936157227e+00,2.557773298951780738e+00
2.174685478210449219e+00,2.558662004311323734e+00
2.176687002182006836e+00,2.558611936403743847e+00
2.178685426712036133e+00,2.558812208034063396e+00
2.180687427520751953e+00,2.559010095478307711e+00
2.182686328887939453e+00,2.541126911774505448e+00
2.184686422348022461e+00,2.546084826717951888e+00
2.186684608459472656e+00,2.547349637430863289e+00
2.188685894012451172e+00,2.548516696514689706e+00
2.190684080123901367e+00,2.549228972104665480e+00
2.192685604095458984e+00,2.550092047463899725e+00
2.194683790206909180e+00,2.551009363056345514e+00
2.196684837341308594e+00,2.549950188392423378e+00
2.198683977127075195e+00,2.547550505107701646e+00
2.200685501098632812e+00,2.546167677184066225e+00
2.202683210372924805e+00,2.547700112783922499e+00
2.204684734344482422e+00,2.547735875575050990e+00
2.206683158874511719e+00,2.549402421641638661e+00
2.208684444427490234e+00,2.550062245137959316e+00
2.210682392120361328e+00,2.550482457933719083e+00
2.212685346603393555e+00,2.527168694397055493e+00
2.214682102203369141e+00,2.541190688752017923e+00
2.216683626174926758e+00,2.542353575510212682e+00
2.218682527542114258e+00,2.541179959914679376e+00
2.220683336257934570e+00,2.544163172741314316e+00
2.222682476043701172e+00,2.544877832517365324e+00
2.224682569503784180e+00,2.544581001350998850e+00
2.226682424545288086e+00,2.545904820669271817e+00
2.228682279586791992e+00,2.547923034181956758e+00
2.230681180953979492e+00,2.546150391835020788e+00
2.232681989669799805e+00,2.548545306747592498e+00
2.234680652618408203e+00,2.549201553964800304e+00
2.236682415008544922e+00,2.550996250032931734e+00
2.238677740097045898e+00,2.552086419115831895e+00
2.240681886672973633e+00,2.551934427253535809e+00
2.242681264877319336e+00,2.544864123447432736e+00
2.244681835174560547e+00,2.550629085377345895e+00
2.246679306030273438e+00,2.551749056786186465e+00
2.248691320419311523e+00,2.553235000757575257e+00
2.250680446624755859e+00,2.549419706990684098e+00
2.252680301666259766e+00,2.525374594375442872e+00
2.254679441452026367e+00,2.512498797476148127e+00
2.256677865982055664e+00,2.522742452948385949e+00
2.258677482604980469e+00,2.528588477204856577e+00
2.260677576065063477e+00,2.532077137479440854e+00
2.262676477432250977e+00,2.524369063898213472e+00
2.264678716659545898e+00,2.532540861671073618e+00
2.266679763793945312e+00,2.535012070538052331e+00
2.268680334091186523e+00,2.538641397791075338e+00
2.270678281784057617e+00,2.540571396418976224e+00
2.272678136825561523e+00,2.542557423419645080e+00
2.274678468704223633e+00,2.544580405304480042e+00
2.276678800582885742e+00,2.546526497188388749e+00
2.278677225112915039e+00,2.549667066295989493e+00
2.280678272247314453e+00,2.551104730499354822e+00
2.282676935195922852e+00,2.552880949125403198e+00
2.284693241119384766e+00,2.545833295087014836e+00
2.286690950393676758e+00,2.552538222377088495e+00
2.288691282272338867e+00,2.554764456124837047e+00
2.290689706802368164e+00,2.557194537782017996e+00
2.292690038681030273e+00,2.554428881934748041e+00
2.294689416885375977e+00,2.558481998262643664e+00
2.296689748764038086e+00,2.560580678055367265e+00
2.298689126968383789e+00,2.562323518076362383e+00
2.300689458847045898e+00,2.564374514147581330e+00
2.302688121795654297e+00,2.565887876258835298e+00
2.304689407348632812e+00,2.566791482781348499e+00
2.306688070297241211e+00,2.566080995330929149e+00
2.308689594268798828e+00,2.568913408388305619e+00
2.310688257217407227e+00,2.538924519887509224e+00
2.312688827514648438e+00,2.559563226647761702e+00
2.314687013626098633e+00,2.561275072249778795e+00
2.316688537597656250e+00,2.562894530641380619e+00
2.318687438964843750e+00,2.564795919036378713e+00
2.320688486099243164e+00,2.565164275785002168e+00
2.322687387466430664e+00,2.567511506976068780e+00
2.324687480926513672e+00,2.568722077455768193e+00
2.326689720153808594e+00,2.569815226771262395e+00
2.328687429428100586e+00,2.568676777920338772e+00
2.330686569213867188e+00,2.570312329567948417e+00
2.332687377929687500e+00,2.571497270047339079e+00
2.334686279296875000e+00,2.574372002407550930e+00
2.336686611175537109e+00,2.573961326356092094e+00
2.338685989379882812e+00,2.573865958913082785e+00
2.340686321258544922e+00,2.576846191507123685e+00
2.342685461044311523e+00,2.576008150101679384e+00
2.344686269760131836e+00,2.579152295488392976e+00
2.346684455871582031e+00,2.580669233878759794e+00
2.348685741424560547e+00,2.581468532260481563e+00
2.350684165954589844e+00,2.579801390147375084e+00
2.352691888809204102e+00,2.582995603441668120e+00
2.354681253433227539e+00,2.557295865690215386e+00
2.356685400009155273e+00,2.545987671135386154e+00
2.358683347702026367e+00,2.558747835010032112e+00
2.360684871673583984e+00,2.561525411787678230e+00
2.362683534622192383e+00,2.564367957635874440e+00
2.364684104919433594e+00,2.567278452787214782e+00
2.366686582565307617e+00,2.569958873982295167e+00
2.368683815002441406e+00,2.571986028192761786e+00
2.370682954788208008e+00,2.573578068444498435e+00
2.372684240341186523e+00,2.576067158707041393e+00
2.374683380126953125e+00,2.579588005493641756e+00
2.376683473587036133e+00,2.581442306213654003e+00
2.378682374954223633e+00,2.583503435075692689e+00
2.380683898925781250e+00,2.586208890224563017e+00
2.382682561874389648e+00,2.587938617222144355e+00
2.384682178497314453e+00,2.589013885142074312e+00
2.386682033538818359e+00,2.589263032586936131e+00
2.388684749603271484e+00,2.592416714717950210e+00
2.390683412551879883e+00,2.594096969854470469e+00
2.392711162567138672e+00,2.594324659624655194e+00
2.394695520401000977e+00,2.578116366638703916e+00
2.396682024002075195e+00,2.587120245351820724e+00
2.398681402206420898e+00,2.589284490261613225e+00
2.400681018829345703e+00,2.591312836565117461e+00
2.402680635452270508e+00,2.590316842832188993e+00
2.404682397842407227e+00,2.593953322643437698e+00
2.406680583953857422e+00,2.594710301722324086e+00
2.408681392669677734e+00,2.596205782438013809e+00
2.410679578781127930e+00,2.597537350361031283e+00
2.412680625915527344e+00,2.598842692237221197e+00
2.414679050445556641e+00,2.599724841085057303e+00
2.416680812835693359e+00,2.599310588754485618e+00
2.418679237365722656e+00,2.601129126683369375e+00
2.420679807662963867e+00,2.600202870393141463e+00
2.422679185867309570e+00,2.602293801581120558e+00
2.424679517745971680e+00,2.601772856923682209e+00
2.426678895950317383e+00,2.601422381570622999e+00
2.428678512573242188e+00,2.602308106697571954e+00
2.430678606033325195e+00,2.602205586696336947e+00
2.432679414749145508e+00,2.601287079010853542e+00
2.434678077697753906e+00,2.602367115302933964e+00
2.436681270599365234e+00,2.600528907838929538e+00
2.438677549362182617e+00,2.600515198768996949e+00
2.440678834915161133e+00,2.599524569454737755e+00
2.442677497863769531e+00,2.599588942478769038e+00
2.444678544998168945e+00,2.598324727812376889e+00
2.446676731109619141e+00,2.597550463384445063e+00
2.448691368103027344e+00,2.597683977804658095e+00
2.450687170028686523e+00,2.594263266833217951e+00
2.452680587768554688e+00,2.584691355787677391e+00
2.454676151275634766e+00,2.586661289532338426e+00
2.456675767898559570e+00,2.585150311607159690e+00
2.458674430847167969e+00,2.585525820914008843e+00
2.460675001144409180e+00,2.585743973939892637e+00
2.462674379348754883e+00,2.583155939955227520e+00
2.464676618576049805e+00,2.583594630193070341e+00
2.466677188873291016e+00,2.581995437383107994e+00
2.468676328659057617e+00,2.581931064359076711e+00
2.470674753189086914e+00,2.581441710167135195e+00
2.472676277160644531e+00,2.580132195965313624e+00
2.474674701690673828e+00,2.579785296891367263e+00
2.476675748825073242e+00,2.576990434764675264e+00
2.478674411773681641e+00,2.577314684070906914e+00
2.480675697326660156e+00,2.576002785683010110e+00
2.482674360275268555e+00,2.575107523811760224e+00
2.484675645828247070e+00,2.573923775425407179e+00
2.486673831939697266e+00,2.573165008206964366e+00
2.488675594329833984e+00,2.571836420516540933e+00
2.490672826766967773e+00,2.570553132361546922e+00
2.492674112319946289e+00,2.570560880966291428e+00
2.494673490524291992e+00,2.569116660251219209e+00
2.496674299240112305e+00,2.567817278840217377e+00
2.498672723770141602e+00,2.568203516984405077e+00
2.500673532485961914e+00,2.566712804640865819e+00
2.502673149108886719e+00,2.566938706271494119e+00
2.504673957824707031e+00,2.566019602539491906e+00
2.506672143936157227e+00,2.564964600201201428e+00
2.508672952651977539e+00,2.565025992992638670e+00
2.510671854019165039e+00,2.564480014381410378e+00
2.512672662734985352e+00,2.563156791109656218e+00
2.514671564102172852e+00,2.562146492260276354e+00
2.516672849655151367e+00,2.558465905006635843e+00
2.518671512603759766e+00,2.560773201080942307e+00
2.520672559738159180e+00,2.560084171305200051e+00
2.522670507431030273e+00,2.558766908498633974e+00
2.524671554565429688e+00,2.558823532917920751e+00
2.526670217514038086e+00,2.559667534788553134e+00
2.528671503067016602e+00,2.559606738043634699e+00
2.530669927597045898e+00,2.558781809661604179e+00
2.532835245132446289e+00,2.558674521288218706e+00
2.534729242324829102e+00,2.536375228926566638e+00
2.536673069000244141e+00,2.552836841683011393e+00
2.538670063018798828e+00,2.554997510313691045e+00
2.540671586990356445e+00,2.554712004031181927e+00
2.542670488357543945e+00,2.554751939147942075e+00
2.544671058654785156e+00,2.554450935655943944e+00
2.546670198440551758e+00,2.554726309147633323e+00
2.548671245574951172e+00,2.555404610086037032e+00
2.550669431686401367e+00,2.554617232634691426e+00
2.552670717239379883e+00,2.554898566591568887e+00
2.554669380187988281e+00,2.555206126595273908e+00
2.556669712066650391e+00,2.554655379611895150e+00
2.558668613433837891e+00,2.555678791484688794e+00
2.560669422149658203e+00,2.555743760555238886e+00
2.562669038772583008e+00,2.556406564284153582e+00
2.564670085906982422e+00,2.556340999167084682e+00
2.566668748855590820e+00,2.556348151725310380e+00
2.568669080734252930e+00,2.556268877538308892e+00
2.570665359497070312e+00,2.556439942889206840e+00
2.572672367095947266e+00,2.556948370569750217e+00
2.574669361114501953e+00,2.554585046122675784e+00
2.576668500900268555e+00,2.556445307307876114e+00
2.578666687011718750e+00,2.556956715221013532e+00
2.580667734146118164e+00,2.557390637086705887e+00
2.582665920257568359e+00,2.557743496625840329e+00
2.584667205810546875e+00,2.557773298951780738e+00
2.586665391921997070e+00,2.557758993835329342e+00
2.588666677474975586e+00,2.557254142433898814e+00
2.590665817260742188e+00,2.557558126158490985e+00
2.592666387557983398e+00,2.557415671040495830e+00
2.594665527343750000e+00,2.557682103834403087e+00
2.596667766571044922e+00,2.557787604068232135e+00
2.598664760589599609e+00,2.557316131271854864e+00
2.600665330886840820e+00,2.558336562912054468e+00
2.602664470672607422e+00,2.558237619189932310e+00
2.604665756225585938e+00,2.557955093140017233e+00
2.606663942337036133e+00,2.558163709421600096e+00
2.608665227890014648e+00,2.558030195001387064e+00
2.610664129257202148e+00,2.558332390586422811e+00
2.612665176391601562e+00,2.557637400345492473e+00
2.614663600921630859e+00,2.558366961284513685e+00
2.616664648056030273e+00,2.558235235003857078e+00
2.618663311004638672e+00,2.557920522441926359e+00
2.620664358139038086e+00,2.557949728721347959e+00
2.622662305831909180e+00,2.557933635465340139e+00
2.624663829803466797e+00,2.556605047774916706e+00
2.626662731170654297e+00,2.557341761272163616e+00
2.628663063049316406e+00,2.557459778482887636e+00
2.630662918090820312e+00,2.557314939178817248e+00
2.632663726806640625e+00,2.557401365924044434e+00
2.634662151336669922e+00,2.556942410104562136e+00
2.636663198471069336e+00,2.556858963591928990e+00
2.638661384582519531e+00,2.553242153315800955e+00
2.640663146972656250e+00,2.555491632877783026e+00
2.642660617828369141e+00,2.554849690777026616e+00
2.644662380218505859e+00,2.555529183808467941e+00
2.646661043167114258e+00,2.555380172178765896e+00
2.648661613464355469e+00,2.556142515676321558e+00
2.650813817977905273e+00,2.555834955672616537e+00
2.652694463729858398e+00,2.554732269612821405e+00
2.654659271240234375e+00,2.556817836382131226e+00
2.656659364700317383e+00,2.558408088494311450e+00
2.658657789230346680e+00,2.557806081510315188e+00
2.660658359527587891e+00,2.557707733834711838e+00
2.662658452987670898e+00,2.557297057783253003e+00
2.664659738540649414e+00,2.558769888731228015e+00
2.666660785675048828e+00,2.556936449639374054e+00
2.668660640716552734e+00,2.557977742907731944e+00
2.670659065246582031e+00,2.558495707332576252e+00
2.672660112380981445e+00,2.558966584082434714e+00
2.674659490585327148e+00,2.558383650587040314e+00
2.676660776138305664e+00,2.558517761053772155e+00
2.678658723831176758e+00,2.558886713848914418e+00
2.680659532546997070e+00,2.558605975938555765e+00
2.682657718658447266e+00,2.559711642230944939e+00
2.684692859649658203e+00,2.559897012698294283e+00
2.686702728271484375e+00,2.527944746964543743e+00
2.688696384429931641e+00,2.506001294374620159e+00
2.690700292587280273e+00,2.496687471471723541e+00
2.692676305770874023e+00,2.490240036277775459e+00
2.694660663604736328e+00,2.517974080797920511e+00
2.696662664413452148e+00,2.522897425043276076e+00
2.698657512664794922e+00,2.512210310961044968e+00
2.700658798217773438e+00,2.490631042794113625e+00
2.702658653259277344e+00,2.505707443440847726e+00
2.704657554626464844e+00,2.503909767140122256e+00
2.706657171249389648e+00,2.510258258611948179e+00
2.708696603775024414e+00,2.509341539066021198e+00
2.710742950439453125e+00,2.485685644827562157e+00
2.712670326232910156e+00,2.474038895850049879e+00
2.714804172515869141e+00,2.503654063183553546e+00
2.716696262359619141e+00,2.493332921663871105e+00
2.718656301498413086e+00,2.508333028356197758e+00
2.720656871795654297e+00,2.513749899119126496e+00
2.722655773162841797e+00,2.515895070540317580e+00
2.724656581878662109e+00,2.522225084570060449e+00
2.726655721664428711e+00,2.525695863449080480e+00
2.728655099868774414e+00,2.530278269085677767e+00
2.730655431747436523e+00,2.531830970267173075e+00
2.732656478881835938e+00,2.536617223813202759e+00
2.734653472900390625e+00,2.540842597585033946e+00
2.736722230911254883e+00,2.543770974131938534e+00
2.738758087158203125e+00,2.495990693091236778e+00
2.740855455398559570e+00,2.487127481356559144e+00
2.742984294891357422e+00,2.483984528062883168e+00
2.745899677276611328e+00,2.455874974235889407e+00
2.748074293136596680e+00,2.454001600027275298e+00
2.750876665115356445e+00,2.443203025246027060e+00
2.753119230270385742e+00,2.433912448157363961e+00
2.755762577056884766e+00,2.387530492249785752e+00
2.757706403732299805e+00,2.415371825143316276e+00
2.759657859802246094e+00,2.419779589149902765e+00
2.761643886566162109e+00,2.415260960490817954e+00
2.763687610626220703e+00,2.413289238606600495e+00
2.765680074691772461e+00,2.409560371584936522e+00
2.767685890197753906e+00,2.407591033886794296e+00
2.769769191741943359e+00,2.390041636233524613e+00
2.771742105484008789e+00,2.393116640224056457e+00
2.773714542388916016e+00,2.407019425275257252e+00
2.775704145431518555e+00,2.411892701613032930e+00
2.777706146240234375e+00,2.417574813076831308e+00
2.779716014862060547e+00,2.423267057331449870e+00
2.781721115112304688e+00,2.426919034352187587e+00
2.783701896667480469e+00,2.432069472321209069e+00
2.785712003707885742e+00,2.434858373982712543e+00
2.787712335586547852e+00,2.440887384520457282e+00
2.789712667465209961e+00,2.445585423181703355e+00
2.791713953018188477e+00,2.450471216496374005e+00
2.793703556060791016e+00,2.456196839356045825e+00
2.795711994171142578e+00,2.459683711491073677e+00
2.797697305679321289e+00,2.465855773193332379e+00
2.799708604812622070e+00,2.470428642085628734e+00
2.801722049713134766e+00,2.475602921915402543e+00
2.803705692291259766e+00,2.480416593601297404e+00
2.805750370025634766e+00,2.485148606914115987e+00
2.807706117630004883e+00,2.488567529745999707e+00
2.809699535369873047e+00,2.493585645387845773e+00
2.811697483062744141e+00,2.498616278006586811e+00
2.813697099685668945e+00,2.502909005035043322e+00
2.815699100494384766e+00,2.505977452513867831e+00
2.817696571350097656e+00,2.509910167444964202e+00
2.819701671600341797e+00,2.513689698420726870e+00
2.821689128875732422e+00,2.516547145431893728e+00
2.823688507080078125e+00,2.520358862919672038e+00
2.825701236724853516e+00,2.523171010395409031e+00
2.827689886093139648e+00,2.526240649967271157e+00
2.829700946807861328e+00,2.529011074186691577e+00
2.831700325012207031e+00,2.533960048432355894e+00
2.833710670471191406e+00,2.536356751484483585e+00
2.835702180862426758e+00,2.539639179663560231e+00
2.837693929672241211e+00,2.541521494569956463e+00
2.839689731597900391e+00,2.543964093204032384e+00
2.841691255569458008e+00,2.545660441596560464e+00
2.843688964843750000e+00,2.548547094887148923e+00
2.845686197280883789e+00,2.550295895373332122e+00
2.847696542739868164e+00,2.551827734926669144e+00
2.849691629409790039e+00,2.551294273292335824e+00
2.851668596267700195e+00,2.537071411260534592e+00
2.853780269622802734e+00,2.550098007929087807e+00
2.855790376663208008e+00,2.552541798656201344e+00
2.857799530029296875e+00,2.552050656324703404e+00
2.859896659851074219e+00,2.546915119518652126e+00
2.862155675888061523e+00,2.536364500089228091e+00
2.864836215972900391e+00,2.529973689314566787e+00
2.866915225982666016e+00,2.504076064118869738e+00
2.868915557861328125e+00,2.465169723650184164e+00
2.871706008911132812e+00,2.477973398920702675e+00
2.873647451400756836e+00,2.499236762432666126e+00
2.875650167465209961e+00,2.501313388504193824e+00
2.877671480178833008e+00,2.501353323620953972e+00
2.879679679870605469e+00,2.501834333161632173e+00
2.881682872772216797e+00,2.502680123171820981e+00
2.883661508560180664e+00,2.499634325460711182e+00
2.885677337646484375e+00,2.503174841782431770e+00
2.887673377990722656e+00,2.499625384762929059e+00
2.889651060104370117e+00,2.503984869001492086e+00
2.891700744628906250e+00,2.506259978563782909e+00
2.893758535385131836e+00,2.490496932327381785e+00
2.895733356475830078e+00,2.478512224973705269e+00
2.897678852081298828e+00,2.523775401565480525e+00
2.899662733078002930e+00,2.522343101780784469e+00
2.901635885238647461e+00,2.540156548041885731e+00
2.903628110885620117e+00,2.561229176667830565e+00
2.905624628067016602e+00,2.573569723793235120e+00
2.907637834548950195e+00,2.579459259445579189e+00
2.909627199172973633e+00,2.593048524027886881e+00
2.911640405654907227e+00,2.602196049952036017e+00
2.913615226745605469e+00,2.611154629129723403e+00
2.915625333786010742e+00,2.617611601067972416e+00
2.917623758316040039e+00,2.626736477224406840e+00
2.919628858566284180e+00,2.634308056152827149e+00
2.921627283096313477e+00,2.641553001588941019e+00
2.923626422882080078e+00,2.648374157950181829e+00
2.925625085830688477e+00,2.653884011970044643e+00
2.927630662918090820e+00,2.659998853206497760e+00
2.929626226425170898e+00,2.664615233494667113e+00
2.931625604629516602e+00,2.669809778906080400e+00
2.933624982833862305e+00,2.673586329649249471e+00
2.935624837875366211e+00,2.676549276894244933e+00
2.937623739242553711e+00,2.680951676482162149e+00
2.939624547958374023e+00,2.683708391631649981e+00
2.941623687744140625e+00,2.686182580731222735e+00
2.943624973297119141e+00,2.687990985869286753e+00
2.945622205734252930e+00,2.689609252167850961e+00
2.947640180587768555e+00,2.691455804283118702e+00
2.949624300003051758e+00,2.691697799169754823e+00
2.951624870300292969e+00,2.692525111737860577e+00
2.953622817993164062e+00,2.692558490342913835e+00
2.955624341964721680e+00,2.691973768707963011e+00
2.957621812820434570e+00,2.692002378940865803e+00
2.959623575210571289e+00,2.690897308694995438e+00
2.961622476577758789e+00,2.689529381934330665e+00
2.963622331619262695e+00,2.688673459133322119e+00
2.965622186660766602e+00,2.686747632831052890e+00
2.967627763748168945e+00,2.684696636759833943e+00
2.969622611999511719e+00,2.682419739057986696e+00
2.971622467041015625e+00,2.680545768802853779e+00
2.973620891571044922e+00,2.677720508303703006e+00
2.975621938705444336e+00,2.674383243844896008e+00
2.977621078491210938e+00,2.672787627314046510e+00
2.979621171951293945e+00,2.668499668657740020e+00
2.981619834899902344e+00,2.666212638165073034e+00
2.983621835708618164e+00,2.662459929282656734e+00
2.985619783401489258e+00,2.659291942035191258e+00
2.987623453140258789e+00,2.655138689892135861e+00
2.989619493484497070e+00,2.650987225888636889e+00
2.991621017456054688e+00,2.648116665854056695e+00
2.993619203567504883e+00,2.644530253950387877e+00
2.995620489120483398e+00,2.640316205062413601e+00
2.997619867324829102e+00,2.636054472452935116e+00
2.999622583389282227e+00,2.611470533784691739e+00
3.001618385314941406e+00,2.585368464633043484e+00
3.003619909286499023e+00,2.578626582458804162e+00
3.005617141723632812e+00,2.587033818606593538e+00
3.007623434066772461e+00,2.585601518821897482e+00
3.009617567062377930e+00,2.577671715935673014e+00
3.011619091033935547e+00,2.576539227549937472e+00
3.013617992401123047e+00,2.574937650553899893e+00
3.015619516372680664e+00,2.573438593559097320e+00
3.017617225646972656e+00,2.572030135635153592e+00
3.019616842269897461e+00,2.570863076551327175e+00
3.021617650985717773e+00,2.568469353731793525e+00
3.023618459701538086e+00,2.566146560447998048e+00
3.025616407394409180e+00,2.565485544858639777e+00
3.027646303176879883e+00,2.562521405520606699e+00
3.029617309570312500e+00,2.558374113842739384e+00
3.031617164611816406e+00,2.560586042474036539e+00
3.033616542816162109e+00,2.558188147328871231e+00
3.035616874694824219e+00,2.557332820574381493e+00
3.037616729736328125e+00,2.556079930791846699e+00
3.039617061614990234e+00,2.553294605409456075e+00
3.041615962982177734e+00,2.552389210747386450e+00
3.043616771697998047e+00,2.551145261662633779e+00
3.045615196228027344e+00,2.550409144211905677e+00
3.047619581222534180e+00,2.549921578159520585e+00
3.049617290496826172e+00,2.548610275818142590e+00
3.051617145538330078e+00,2.547082608590437225e+00
3.053615570068359375e+00,2.543409769941540777e+00
3.055615425109863281e+00,2.543106978309986221e+00
3.057615280151367188e+00,2.542225425508668923e+00
3.059615135192871094e+00,2.542223041322593691e+00
3.061615467071533203e+00,2.541612689687334115e+00
3.063614130020141602e+00,2.541627590850304319e+00
3.065613031387329102e+00,2.540760939211957226e+00
3.067617654800415039e+00,2.540184562228269716e+00
3.069613695144653320e+00,2.539277379426643666e+00
3.071614503860473633e+00,2.539823954084390767e+00
3.073613166809082031e+00,2.539721434083155760e+00
3.075613975524902344e+00,2.540344898741829116e+00
3.077613115310668945e+00,2.540065352924508080e+00
3.079614162445068359e+00,2.540260856182677163e+00
3.081612586975097656e+00,2.540046875482425026e+00
3.083612918853759766e+00,2.539352481288013497e+00
3.085728645324707031e+00,2.540047471528943834e+00
3.087647438049316406e+00,2.538519804301238469e+00
3.089610815048217773e+00,2.530042830710748536e+00
3.091612577438354492e+00,2.534665767510624779e+00
3.093611001968383789e+00,2.534899417745997585e+00
3.095611810684204102e+00,2.535434071473368522e+00
3.097611188888549805e+00,2.535470430311015821e+00
3.099612712860107422e+00,2.537370030566457491e+00
3.101611137390136719e+00,2.537462417776872758e+00
3.103611230850219727e+00,2.537833158711571446e+00
3.105610609054565430e+00,2.538457815463282419e+00
3.107610940933227539e+00,2.538587157557863794e+00
3.109609842300415039e+00,2.537850444060616883e+00
3.111610651016235352e+00,2.539795939898006782e+00
3.113609790802001953e+00,2.540377085253844758e+00
3.115610361099243164e+00,2.541424338987390730e+00
3.117608785629272461e+00,2.541560237593678995e+00
3.119610309600830078e+00,2.542257015974165757e+00
3.121609449386596680e+00,2.542668288072143401e+00
3.123609781265258789e+00,2.543656533200327363e+00
3.125608444213867188e+00,2.544319932975760867e+00
3.127609968185424805e+00,2.544170921346058822e+00
3.129607677459716797e+00,2.545115059031850979e+00
3.131608963012695312e+00,2.544297879254564965e+00
3.133607625961303711e+00,2.546722000446557832e+00
3.135609149932861328e+00,2.547864025576594749e+00
3.137606382369995117e+00,2.548554843491893429e+00
3.139611005783081055e+00,2.548685377679512420e+00
3.141607284545898438e+00,2.549638456063086700e+00
3.143608331680297852e+00,2.549848264437707179e+00
3.145606994628906250e+00,2.549898928391805875e+00
3.147608041763305664e+00,2.550501531422320944e+00
3.149611473083496094e+00,2.548132246510058430e+00
3.151607990264892578e+00,2.549835151414293399e+00
3.153606176376342773e+00,2.550516432585291149e+00
3.155606985092163086e+00,2.551179832360724653e+00
3.157606124877929688e+00,2.551976150509852381e+00
3.159606933593750000e+00,2.552218145396488502e+00
3.161604881286621094e+00,2.553206986571191273e+00
3.163607835769653320e+00,2.554085559139914530e+00
3.165605306625366211e+00,2.535197441005401675e+00
3.167608737945556641e+00,2.534831468442853453e+00
3.169605731964111328e+00,2.530373040482168268e+00
3.171607017517089844e+00,2.523719969239231364e+00
3.173604249954223633e+00,2.532801930046311600e+00
3.175605535507202148e+00,2.534363571925589032e+00
3.177604675292968750e+00,2.536771599861574078e+00
3.179605484008789062e+00,2.538980548260277192e+00
3.181604146957397461e+00,2.539649908500898778e+00
3.183603525161743164e+00,2.540641729908195590e+00
3.185604095458984375e+00,2.541886275039467069e+00
3.187604904174804688e+00,2.543880050644880431e+00
3.189603567123413086e+00,2.544097607624245416e+00
3.191604852676391602e+00,2.546412652303296387e+00
3.193602561950683594e+00,2.547400301384961985e+00
3.195604324340820312e+00,2.549183672569236059e+00
3.197602987289428711e+00,2.549802368855758949e+00
3.199611663818359375e+00,2.550111716999020395e+00
3.201603651046752930e+00,2.551479047713166359e+00
3.203603267669677734e+00,2.552022642138319419e+00
3.205602407455444336e+00,2.551074928173414413e+00
3.207603216171264648e+00,2.553654021460297407e+00
3.209601879119873047e+00,2.553576535412852344e+00
3.211602687835693359e+00,2.555049962407346165e+00
3.213601350784301758e+00,2.556854195219778525e+00
3.215602874755859375e+00,2.557494945227497318e+00
3.217600345611572266e+00,2.558273978027579609e+00
3.219602584838867188e+00,2.557925886860595632e+00
3.221601009368896484e+00,2.559107251060873445e+00
3.223602056503295898e+00,2.560462064798124437e+00
3.225600004196166992e+00,2.560053176886222026e+00
3.227602005004882812e+00,2.561385340855758308e+00
3.229600429534912109e+00,2.560681409917045848e+00
3.231601238250732422e+00,2.562068410166312482e+00
3.233599662780761719e+00,2.561152286666904310e+00
3.235601425170898438e+00,2.561949796909069654e+00
3.237599849700927734e+00,2.562098808538771699e+00
3.239600181579589844e+00,2.562712736453144124e+00
3.241599321365356445e+00,2.563778467628773150e+00
3.243600130081176758e+00,2.564022250654965696e+00
3.245598316192626953e+00,2.564131327167907592e+00
3.247599601745605469e+00,2.563865490420519144e+00
3.249599218368530273e+00,2.563599653673130696e+00
3.251602172851562500e+00,2.564528890195952648e+00
3.253599882125854492e+00,2.561409182716510635e+00
3.255598783493041992e+00,2.561912245978384739e+00
3.257598400115966797e+00,2.563184209249521395e+00
3.259598255157470703e+00,2.563403554368442805e+00
3.261598110198974609e+00,2.564065166004319885e+00
3.263599157333374023e+00,2.562699623429730345e+00
3.265597343444824219e+00,2.533886138664023679e+00
3.267598867416381836e+00,2.545230096009980958e+00
3.269597053527832031e+00,2.544898098099004802e+00
3.271598100662231445e+00,2.542149727600780285e+00
3.273596286773681641e+00,2.542789881561980270e+00
3.275598287582397461e+00,2.534432117275251972e+00
3.277595996856689453e+00,2.542758887143002244e+00
3.279598236083984375e+00,2.542847102027785855e+00
3.281595468521118164e+00,2.545146053450829005e+00
3.283596992492675781e+00,2.545464938338391381e+00
3.285595178604125977e+00,2.547018831612924750e+00
3.287594795227050781e+00,2.547918265809806293e+00
3.289595603942871094e+00,2.548179334185044276e+00
3.291596174240112305e+00,2.548989361404104592e+00
3.293595552444458008e+00,2.550671404680181276e+00
3.295595645904541016e+00,2.551204270267995788e+00
3.297594785690307617e+00,2.551803297019398009e+00
3.299596071243286133e+00,2.552390402840424066e+00
3.301594257354736328e+00,2.553327387967990525e+00
3.303607702255249023e+00,2.554253048211699628e+00
3.305594444274902344e+00,2.553497261225850856e+00
3.307595252990722656e+00,2.551932043067460576e+00
3.309592962265014648e+00,2.552818364240928339e+00
3.311594486236572266e+00,2.554741210310603527e+00
3.313593626022338867e+00,2.554514712633456419e+00
3.315594196319580078e+00,2.555576271483453787e+00
3.317593097686767578e+00,2.556051916605462715e+00
3.319594621658325195e+00,2.556946582430193793e+00
3.321592569351196289e+00,2.556655711729015401e+00
3.323593616485595703e+00,2.557459778482887636e+00
3.325592756271362305e+00,2.557580179879686888e+00
3.327594041824340820e+00,2.556947774523231409e+00
3.329593658447265625e+00,2.556823796847319308e+00
3.331594228744506836e+00,2.556201524281683568e+00
3.333591938018798828e+00,2.530551854437810722e+00
3.335597991943359375e+00,2.515738906352389836e+00
3.337591409683227539e+00,2.533449832612256092e+00
3.339593172073364258e+00,2.531560365147634162e+00
3.341605424880981445e+00,2.534475032624606161e+00
3.343597173690795898e+00,2.519864144309061249e+00
3.345591068267822266e+00,2.533784810755826289e+00
3.347592592239379883e+00,2.536130253807336477e+00
3.349590778350830078e+00,2.536770407768536462e+00
3.351592302322387695e+00,2.538829152444499915e+00
3.353591442108154297e+00,2.540750210374618678e+00
3.355589866638183594e+00,2.542726104584467794e+00
3.357591867446899414e+00,2.544403379488394012e+00
3.359592199325561523e+00,2.546018069507845372e+00
3.361590862274169922e+00,2.547257250220448022e+00
3.363591670989990234e+00,2.549580043504243498e+00
3.365590333938598633e+00,2.551095789801572700e+00
3.367590904235839844e+00,2.552917904009569305e+00
3.369589567184448242e+00,2.552396959352130956e+00
3.371605634689331055e+00,2.553927010765911554e+00
3.373589992523193359e+00,2.554861015660883972e+00
3.375590324401855469e+00,2.552114433302215879e+00
3.377588272094726562e+00,2.555691904508102574e+00
3.379602670669555664e+00,2.557590908717025435e+00
3.381588935852050781e+00,2.557664222438838841e+00
3.383591175079345703e+00,2.559272951993102119e+00
3.385588169097900391e+00,2.558791346405905109e+00
3.387589931488037109e+00,2.560335702936137103e+00
3.389587879180908203e+00,2.560323185959242132e+00
3.391592741012573242e+00,2.561774559232540049e+00
3.393611192703247070e+00,2.561044998293518837e+00
3.395590782165527344e+00,2.551552361434979765e+00
3.397588014602661133e+00,2.556553191727780394e+00
3.399587869644165039e+00,2.556785649870115584e+00
3.401587724685668945e+00,2.557404346156638475e+00
3.403587579727172852e+00,2.558088607560230265e+00
3.405587434768676758e+00,2.558864064081199707e+00
3.407586812973022461e+00,2.558665580590436583e+00
3.409586429595947266e+00,2.559209175015589643e+00
3.411586761474609375e+00,2.560026950839394466e+00
3.413586378097534180e+00,2.560609288288270058e+00
3.415586709976196289e+00,2.560451335960785890e+00
3.417587280273437500e+00,2.561605282021198526e+00
3.419587373733520508e+00,2.562563724823442080e+00
3.421585083007812500e+00,2.562882013664485648e+00
3.423586368560791016e+00,2.563719459023411140e+00
3.425585508346557617e+00,2.563715286697779483e+00
3.427586078643798828e+00,2.564937182061336252e+00
3.429584980010986328e+00,2.564375110194100138e+00
3.431586027145385742e+00,2.565945096724640884e+00
3.433583736419677734e+00,2.564121790423606662e+00
3.435585260391235352e+00,2.562358088774453257e+00
3.437583923339843750e+00,2.563647933441154159e+00
3.439585208892822266e+00,2.564440675311169038e+00
3.441583633422851562e+00,2.565670915325989121e+00
3.443584680557250977e+00,2.565307326949516131e+00
3.445583105087280273e+00,2.565281100902688571e+00
3.447584152221679688e+00,2.565905161607880736e+00
3.449583530426025391e+00,2.565442033462766780e+00
3.451585769653320312e+00,2.566036887888537343e+00
3.453583717346191406e+00,2.561944432490400381e+00
3.455582857131958008e+00,2.563974566933461041e+00
3.457583189010620117e+00,2.564366765542836823e+00
3.459582328796386719e+00,2.563536472742137029e+00
3.461582183837890625e+00,2.563566275068077438e+00
3.463582754135131836e+00,2.562764592500280436e+00
3.465582132339477539e+00,2.563194938086859942e+00
3.467581987380981445e+00,2.563236661343176515e+00
3.469581365585327148e+00,2.562622137382285281e+00
3.471582651138305664e+00,2.562108345283072630e+00
3.473581552505493164e+00,2.561749525278750106e+00
3.475582361221313477e+00,2.562148876446351586e+00
3.477580070495605469e+00,2.561840720396127757e+00
3.479580879211425781e+00,2.561624951556319196e+00
3.481579780578613281e+00,2.561664290626560536e+00
3.483581542968750000e+00,2.561466403182316220e+00
3.485579729080200195e+00,2.561881847605925522e+00
3.487580776214599609e+00,2.560417957355732632e+00
3.489579916000366211e+00,2.560880489454327780e+00
3.491580724716186523e+00,2.560584254334480114e+00
3.493579864501953125e+00,2.560274310144699861e+00
3.495580196380615234e+00,2.560869760616989232e+00
3.497578620910644531e+00,2.544363444371633864e+00
3.499579429626464844e+00,2.555645412879635536e+00
3.501578569412231445e+00,2.556138343350689901e+00
3.503579854965209961e+00,2.555895156371016164e+00
3.505577802658081055e+00,2.556508488238869781e+00
3.507579565048217773e+00,2.556650347310346127e+00
3.509577751159667969e+00,2.557471103366744991e+00
3.511579275131225586e+00,2.557655877787575527e+00
3.513576984405517578e+00,2.557853765231819843e+00
3.515578508377075195e+00,2.559150762456746442e+00
3.517577648162841797e+00,2.553505605877114171e+00
3.519578456878662109e+00,2.555441564970203139e+00
3.521577596664428711e+00,2.556031651023823237e+00
3.523577928543090820e+00,2.550832933286778292e+00
3.525575399398803711e+00,2.552962607498479919e+00
3.527577638626098633e+00,2.553741044252043402e+00
3.529576301574707031e+00,2.556137151257652285e+00
3.531578063964843750e+00,2.556318349399369971e+00
3.533576250076293945e+00,2.558200664305766203e+00
3.535617589950561523e+00,2.559744424789479389e+00
3.537582874298095703e+00,2.558020658257086133e+00
3.539579153060913086e+00,2.544464772279831255e+00
3.541836977005004883e+00,2.557871646627384088e+00
3.546114444732666016e+00,2.556542462890441847e+00
3.550119400024414062e+00,2.578314850129467484e+00
3.554135560989379883e+00,2.589304755843252703e+00
3.558114051818847656e+00,2.600462746675341830e+00
3.562112808227539062e+00,2.602812362052483675e+00
3.566111087799072266e+00,2.616165592213343771e+00
3.570116519927978516e+00,2.624453619057371512e+00
3.574112892150878906e+00,2.631962613101316961e+00
3.578109741210937500e+00,2.638362364573760388e+00
3.582109928131103516e+00,2.640483694134198700e+00
3.586109638214111328e+00,2.642328458109910461e+00
3.590118408203125000e+00,2.645531612101985619e+00
3.594113826751708984e+00,2.648016530038896921e+00
3.598111152648925781e+00,2.648479658184010876e+00
3.602108478546142578e+00,2.648791986559866363e+00
3.606108903884887695e+00,2.643794136499659775e+00
3.610112428665161133e+00,2.642427997878551427e+00
3.614109754562377930e+00,2.640878872976168967e+00
3.618107795715332031e+00,2.638786153648633004e+00
3.622107267379760742e+00,2.636000232219723571e+00
3.626105785369873047e+00,2.623709753001898903e+00
3.630112171173095703e+00,2.623186424158385321e+00
3.634108066558837891e+00,2.619020655038434953e+00
3.638106107711791992e+00,2.616204335237066303e+00
3.642133235931396484e+00,2.609924985161422128e+00
3.646476030349731445e+00,2.595179390332626124e+00
3.650485038757324219e+00,2.596894812213756065e+00
3.654482364654541016e+00,2.591888021455767355e+00
3.658475637435913086e+00,2.592312406577158779e+00
3.662473201751708984e+00,2.589986037014250453e+00
3.666472911834716797e+00,2.612170888444291350e+00
3.670477867126464844e+00,2.580269882711158314e+00
3.674473762512207031e+00,2.579397270607623138e+00
3.678471326828002930e+00,2.578318426408580333e+00
3.682471036911010742e+00,2.615617229416040246e+00
3.686470508575439453e+00,2.606985879777178550e+00
3.690476655960083008e+00,2.568098016750576029e+00
3.694470643997192383e+00,2.566902347433846820e+00
3.698469161987304688e+00,2.566262789519165644e+00
3.702470541000366211e+00,2.565301962530846858e+00
3.706469058990478516e+00,2.563543625300362727e+00
3.710744619369506836e+00,2.559230632690266738e+00
3.714581251144409180e+00,2.553692764484019939e+00
3.718470811843872070e+00,2.556515044750576671e+00
3.722519397735595703e+00,2.550403779793236403e+00
3.726493120193481445e+00,2.549877470717128780e+00
3.730594158172607422e+00,2.547326391616629770e+00
3.734494447708129883e+00,2.547289436732463663e+00
3.738583087921142578e+00,2.545417254616886726e+00
3.742567300796508789e+00,2.543826406458187694e+00
3.746211528778076172e+00,2.540785973165747169e+00
3.750269889831542969e+00,2.532857362372560761e+00
3.755756378173828125e+00,2.530132833735088571e+00
3.759346961975097656e+00,2.533961836571912318e+00
3.763278722763061523e+00,2.532772723766890000e+00
3.767274141311645508e+00,2.530773583742807364e+00
3.771183013916015625e+00,2.531485263286264331e+00
3.775185108184814453e+00,2.530790869091852802e+00
3.779180049896240234e+00,2.571761914701689911e+00
3.783132314682006836e+00,2.532097403061080332e+00
3.787087440490722656e+00,2.561205930853597046e+00
3.791085958480834961e+00,2.570739098875415074e+00
3.795084714889526367e+00,2.579055735952346051e+00
3.799082994461059570e+00,2.587435553960270251e+00
3.803083896636962891e+00,2.594354461950595603e+00
3.807083606719970703e+00,2.599861335737864376e+00
3.811090469360351562e+00,2.605094624173000195e+00
3.815089464187622070e+00,2.609737826554516360e+00
3.819090366363525391e+00,2.612797929382077555e+00
3.823087215423583984e+00,2.614578320333757588e+00
3.827088594436645508e+00,2.616906478036222339e+00
3.831087350845336914e+00,2.618743493407189149e+00
3.835086107254028320e+00,2.619893863188488936e+00
3.839079618453979492e+00,2.620724155989188731e+00
3.843087434768676758e+00,2.620437457613641996e+00
3.847087144851684570e+00,2.618229701307976498e+00
3.851084709167480469e+00,2.617978765723558254e+00
3.855088710784912109e+00,2.613699747765034331e+00
3.859083414077758789e+00,2.613451792413210129e+00
3.863083600997924805e+00,2.610536528889719321e+00
3.867083072662353516e+00,2.608597589564035868e+00
3.871083259582519531e+00,2.605948162787933509e+00
3.875083446502685547e+00,2.603634906248438963e+00
3.879076242446899414e+00,2.599907231319812606e+00
3.883086204528808594e+00,2.597104024541857736e+00
3.887082815170288086e+00,2.595227074054130778e+00
3.891081809997558594e+00,2.592833351234597128e+00
3.895080566406250000e+00,2.590080808410740953e+00
3.899080991744995117e+00,2.587926100245249383e+00
3.903085231781005859e+00,2.584922025790456157e+00
3.907081604003906250e+00,2.582558701343381724e+00
3.911080598831176758e+00,2.581048915511240605e+00
3.915079116821289062e+00,2.578807780600521848e+00
3.919078588485717773e+00,2.576420018246175836e+00
3.923078536987304688e+00,2.573854037982706622e+00
3.927078723907470703e+00,2.572489091454635890e+00
3.931077480316162109e+00,2.570745655387121964e+00
3.935079097747802734e+00,2.568720289316211769e+00
3.939077377319335938e+00,2.567057915575255755e+00
3.943251848220825195e+00,2.558953471059020934e+00
3.947417259216308594e+00,2.559009499431788903e+00
3.951415300369262695e+00,2.561661310393966495e+00
3.955413579940795898e+00,2.562253780633661826e+00
3.959413051605224609e+00,2.563210435296348955e+00
3.963413238525390625e+00,2.563265867622598115e+00
3.967412471771240234e+00,2.564900227177170144e+00
3.971412420272827148e+00,2.564199276471051725e+00
3.975413799285888672e+00,2.564061589725207035e+00
3.979412317276000977e+00,2.564440675311169038e+00
3.983412981033325195e+00,2.563941784374926591e+00
3.987411022186279297e+00,2.564262457402045392e+00
3.991410017013549805e+00,2.564106889260636457e+00
3.995410203933715820e+00,2.564147420423915413e+00
3.999411821365356445e+00,2.563381500647246902e+00
4.003410339355468750e+00,2.563613362743063284e+00
4.007409811019897461e+00,2.563403554368442805e+00
4.011410713195800781e+00,2.562305636680798138e+00
4.015410900115966797e+00,2.562797375058814886e+00
4.019408464431762695e+00,2.563149638551430520e+00
4.023408174514770508e+00,2.561928935280911368e+00
4.027410268783569336e+00,2.562871880873665908e+00
4.031408071517944336e+00,2.562476702031696085e+00
4.035408020019531250e+00,2.561708994115471150e+00
4.039407968521118164e+00,2.561487860856993315e+00
4.043665170669555664e+00,2.561011023641946771e+00
4.047852277755737305e+00,2.561453290158902441e+00
4.052836418151855469e+00,2.557759589881848150e+00
4.057833194732666016e+00,2.556969828244427312e+00
4.062831401824951172e+00,2.555740780322644845e+00
4.067836761474609375e+00,2.554117149605411363e+00
4.072833061218261719e+00,2.554860419614365163e+00
4.077830791473388672e+00,2.554863399846959204e+00
4.082831382751464844e+00,2.553928202858949170e+00
4.087833166122436523e+00,2.553134268895896675e+00
4.092830896377563477e+00,2.554157680768690319e+00
4.097828626632690430e+00,2.553428715876187916e+00
4.102826356887817383e+00,2.553894824253895912e+00
4.107833147048950195e+00,2.553823298671638931e+00
4.112828493118286133e+00,2.554560012168885841e+00
4.117827653884887695e+00,2.554769224496987512e+00
4.122826814651489258e+00,2.554979032871607991e+00
4.127830266952514648e+00,2.556009001256108526e+00
4.132848024368286133e+00,2.555506534040753230e+00
4.137827634811401367e+00,2.555466002877474274e+00
4.142967939376831055e+00,2.556538886611328998e+00
4.147772789001464844e+00,2.552457756097049391e+00
4.152406930923461914e+00,2.552703923309317169e+00
4.156403064727783203e+00,2.556079930791846699e+00
4.160403013229370117e+00,2.556956119174494724e+00
4.164405584335327148e+00,2.558049864536507734e+00
4.168402194976806641e+00,2.558701343381565074e+00
4.172401666641235352e+00,2.559654421765139354e+00
4.176400661468505859e+00,2.561261363179846207e+00
4.180401086807250977e+00,2.561829395512270402e+00
4.184399366378784180e+00,2.561359114808930748e+00
4.188400030136108398e+00,2.562015958072657362e+00
4.192399978637695312e+00,2.562422461798484541e+00
4.196398496627807617e+00,2.562966652270156409e+00
4.200399160385131836e+00,2.563513226927903510e+00
4.204397916793823242e+00,2.562975592967938532e+00
4.208399534225463867e+00,2.563943572514483016e+00
4.212396621704101562e+00,2.565146990435956731e+00
4.216396808624267578e+00,2.564580746243088960e+00
4.220396757125854492e+00,2.564666576941797338e+00
4.224395751953125000e+00,2.564481206474447994e+00
4.228395938873291016e+00,2.564722009268046499e+00
4.232395648956298828e+00,2.563582964370604067e+00
4.236394405364990234e+00,2.563941188328407783e+00
4.240394830703735352e+00,2.563528724137392523e+00
4.244532108306884766e+00,2.563844032745842050e+00
4.248551845550537109e+00,2.563770122977509835e+00
4.252816915512084961e+00,2.566569157429833048e+00
4.257816076278686523e+00,2.560184307120359826e+00
4.262813568115234375e+00,2.559592432927183303e+00
4.267817735671997070e+00,2.558205432677916669e+00
4.272815227508544922e+00,2.557662434299282417e+00
4.277814388275146484e+00,2.558096952211493580e+00
4.282812833786010742e+00,2.557279176387688757e+00
4.287816762924194336e+00,2.557755417556216493e+00
4.292814254760742188e+00,2.555906481254873519e+00
4.297812461853027344e+00,2.555868334277669796e+00
4.302810668945312500e+00,2.555383748457878745e+00
4.307815313339233398e+00,2.554875916823854176e+00
4.312811374664306641e+00,2.554293579374978584e+00
4.317809343338012695e+00,2.556224174049398279e+00
4.322807550430297852e+00,2.556170529862705543e+00
4.327812910079956055e+00,2.556341595213603490e+00
4.332811594009399414e+00,2.555886215673234041e+00
4.337846517562866211e+00,2.554574913331856045e+00
4.342813968658447266e+00,2.539020483377037340e+00
4.347925901412963867e+00,2.539575402686047756e+00
4.352384805679321289e+00,2.539750640362577361e+00
4.356385469436645508e+00,2.543507521570625318e+00
4.360380411148071289e+00,2.544790213679100521e+00
4.364381790161132812e+00,2.546744054167753735e+00
4.368381500244140625e+00,2.548326557675189896e+00
4.372381210327148438e+00,2.549857801182008110e+00
4.376379489898681641e+00,2.551563686318837121e+00
4.380382299423217773e+00,2.553404277968916780e+00
4.384389162063598633e+00,2.555269903572786383e+00
4.388384342193603516e+00,2.556379742190807214e+00
4.392405748367309570e+00,2.558485574541756513e+00
4.396437644958496094e+00,2.545661037643079272e+00
4.400417327880859375e+00,2.556841082196364745e+00
4.404416799545288086e+00,2.558036751513093954e+00
4.408414840698242188e+00,2.560119934096328542e+00
4.412413358688354492e+00,2.560634322242060001e+00
4.416414976119995117e+00,2.562323518076362383e+00
4.420412540435791016e+00,2.563993640422062903e+00
4.424412965774536133e+00,2.564687438569955624e+00
4.428411245346069336e+00,2.566359349055212569e+00
4.432410955429077148e+00,2.567526408139038985e+00
4.436412334442138672e+00,2.567490645347910494e+00
4.440412759780883789e+00,2.567301102554929493e+00
4.444410562515258789e+00,2.567261763484688153e+00
4.448555946350097656e+00,2.569681116304530555e+00
4.452841043472290039e+00,2.571344086092005377e+00
4.457835674285888672e+00,2.567782112095607694e+00
4.462836980819702148e+00,2.565826483467398056e+00
4.467838048934936523e+00,2.565681048116808860e+00
4.472833156585693359e+00,2.565547533696595828e+00
4.477830410003662109e+00,2.565833636025623754e+00
4.482831001281738281e+00,2.565841980676887069e+00
4.487834453582763672e+00,2.564698763453812980e+00
4.492828845977783203e+00,2.564342327635565688e+00
4.497830390930175781e+00,2.563199110412491599e+00
4.502828121185302734e+00,2.563742704837644659e+00
4.507833003997802734e+00,2.563708730186072593e+00
4.512829303741455078e+00,2.548059528834763832e+00
4.517831563949584961e+00,2.539547388499663771e+00
4.522826671600341797e+00,2.533686463080222939e+00
4.527830362319946289e+00,2.528044882779703517e+00
4.532824993133544922e+00,2.523569169469972895e+00
4.537827491760253906e+00,2.519833149890083224e+00
4.542825222015380859e+00,2.518323364057942104e+00
4.547972202301025391e+00,2.515635790304636021e+00
4.552617073059082031e+00,2.514326872149332814e+00
4.556402921676635742e+00,2.519069614299489945e+00
4.560399293899536133e+00,2.517558636374311209e+00
4.564399957656860352e+00,2.516638936595790188e+00
4.568399190902709961e+00,2.518374624058559608e+00
4.572399139404296875e+00,2.520222368266864965e+00
4.576400279998779297e+00,2.519769372912570748e+00
4.580396890640258789e+00,2.523364129467502881e+00
4.584399461746215820e+00,2.525060477860030961e+00
4.588399171829223633e+00,2.527523342075746360e+00
4.592396974563598633e+00,2.529143992560385801e+00
4.596398353576660156e+00,2.545540040199761211e+00
4.600395917892456055e+00,2.554496235191373366e+00
4.604395389556884766e+00,2.562512464822824576e+00
4.608396530151367188e+00,2.569058247692376007e+00
4.612394571304321289e+00,2.614710046614414196e+00
4.616394996643066406e+00,2.579917619218542679e+00
4.620394945144653320e+00,2.585276673469147024e+00
4.624394416809082031e+00,2.589890669571241144e+00
4.628394365310668945e+00,2.593296479379711084e+00
4.632393836975097656e+00,2.596020411970664465e+00
4.636393070220947266e+00,2.597354960126275980e+00
4.640392541885375977e+00,2.600368571325370137e+00
4.644397735595703125e+00,2.599319529452267741e+00
4.648505926132202148e+00,2.601602983665821878e+00
4.652546882629394531e+00,2.601036143426435299e+00
4.656818151473999023e+00,2.601586890409814057e+00
4.661817073822021484e+00,2.597051572448202617e+00
4.666815042495727539e+00,2.595476817545511405e+00
4.671819210052490234e+00,2.593586157987851859e+00
4.676815748214721680e+00,2.591324757495493625e+00
4.681814670562744141e+00,2.589738677708945058e+00
4.686814308166503906e+00,2.587893317686714934e+00
4.691817760467529297e+00,2.585857222778466191e+00
4.696814537048339844e+00,2.584019611360980573e+00
4.701811552047729492e+00,2.582127163663764602e+00
4.706811428070068359e+00,2.581377933189622720e+00
4.711819887161254883e+00,2.580361077828535965e+00
4.716816425323486328e+00,2.578763077111611235e+00
4.721814393997192383e+00,2.616789056872017127e+00
4.726813554763793945e+00,2.578214714314307709e+00
4.731816053390502930e+00,2.616361691518031662e+00
4.736816644668579102e+00,2.616300894773113228e+00
4.741809844970703125e+00,2.616666867335661451e+00
4.746808767318725586e+00,2.616554214543606705e+00
4.751904010772705078e+00,2.616805746174543756e+00
4.756388425827026367e+00,2.575437733583179956e+00
4.760384798049926758e+00,2.579228589442800423e+00
4.764383077621459961e+00,2.580061266429575451e+00
4.768383264541625977e+00,2.581065604813767234e+00
4.772383928298950195e+00,2.581263492258011549e+00
4.776384115219116211e+00,2.581574628540829419e+00
4.780382633209228516e+00,2.582496116458906865e+00
4.784383773803710938e+00,2.582519362273140384e+00
4.788382768630981445e+00,2.582612941576593268e+00
4.792384147644042969e+00,2.582226703432405568e+00
4.796381950378417969e+00,2.582693407856632373e+00
4.800380945205688477e+00,2.582173059245712832e+00
4.804380655288696289e+00,2.581922123661294588e+00
4.808381319046020508e+00,2.582299421107700166e+00
4.812380313873291016e+00,2.581413099934232402e+00
4.816380977630615234e+00,2.580543468063291268e+00
4.820379018783569336e+00,2.579146931069723703e+00
4.824378967285156250e+00,2.616976215478922896e+00
4.828378438949584961e+00,2.615594579648325535e+00
4.832377672195434570e+00,2.614648057776458145e+00
4.836377143859863281e+00,2.613628222182777350e+00
4.840377092361450195e+00,2.611810876346931209e+00
4.844378232955932617e+00,2.572318622150256751e+00
4.848377466201782227e+00,2.571022220971848959e+00
4.852580308914184570e+00,2.569881387934850103e+00
4.856803417205810547e+00,2.567460246975451277e+00
4.861872196197509766e+00,2.564109869493230498e+00
4.866818904876708984e+00,2.554050392395304847e+00
4.871842384338378906e+00,2.543495004593730346e+00
4.876802206039428711e+00,2.551214999105334336e+00
4.881802797317504883e+00,2.551656669575771197e+00
4.886796712875366211e+00,2.552917307963050497e+00
4.891803026199340820e+00,2.554991549848502963e+00
4.896798133850097656e+00,2.556264109166158427e+00
4.901802539825439453e+00,2.555118507757009105e+00
4.906796216964721680e+00,2.556890554057425824e+00
4.911867856979370117e+00,2.557644552903718171e+00
4.916815519332885742e+00,2.556608624054029555e+00
4.921799659729003906e+00,2.557835883836255597e+00
4.926799774169921875e+00,2.559129900828588156e+00
4.931802272796630859e+00,2.561621375277206347e+00
4.936797618865966797e+00,2.561896748768895726e+00
4.941794395446777344e+00,2.563764758558840562e+00
4.946792602539062500e+00,2.564696379267737747e+00
4.951803922653198242e+00,2.565985031841401032e+00
4.956586837768554688e+00,2.565078445086293790e+00
4.960370302200317383e+00,2.572747775643798640e+00
4.964369535446166992e+00,2.570211001659751027e+00
4.968367815017700195e+00,2.571617075397619523e+00
4.972368478775024414e+00,2.571615883304581907e+00
4.976368188858032227e+00,2.571658798653936095e+00
4.980366468429565430e+00,2.573282429371169577e+00
4.984366416931152344e+00,2.612308575190136040e+00
4.988367080688476562e+00,2.612844421010544593e+00
4.992365121841430664e+00,2.612691237055210891e+00
4.996364355087280273e+00,2.611998034953836978e+00
5.000364542007446289e+00,2.572766253085881694e+00
5.004364013671875000e+00,2.573063084252248167e+00
5.008363008499145508e+00,2.572620221688773690e+00
5.012363910675048828e+00,2.573015400530743513e+00
5.016363620758056641e+00,2.571587869118197922e+00
5.020362377166748047e+00,2.571257659346778190e+00
5.024362325668334961e+00,2.571705290282403134e+00
5.028363704681396484e+00,2.570956655854780060e+00
5.032361507415771484e+00,2.571329184929035172e+00
5.036360979080200195e+00,2.570222922590127190e+00
5.040360689163208008e+00,2.569449254208714173e+00
5.044360876083374023e+00,2.568663664896924992e+00
5.048360586166381836e+00,2.568363257451445669e+00
5.052364587783813477e+00,2.568611212803269872e+00
5.056575775146484375e+00,2.564205236936239807e+00
5.060783863067626953e+00,2.569634624676063517e+00
5.065783977508544922e+00,2.563700981581328087e+00
5.070784091949462891e+00,2.562836714129056226e+00
5.075786590576171875e+00,2.561266727598515480e+00
5.080781221389770508e+00,2.561078972945090904e+00
5.085782766342163086e+00,2.560663528521481602e+00
5.090779066085815430e+00,2.560932345501464091e+00
5.095788478851318359e+00,2.560777969453092773e+00
5.100781917572021484e+00,2.559709854091388515e+00
5.105781078338623047e+00,2.559913105954302104e+00
5.110780239105224609e+00,2.559140629665926703e+00
5.115781784057617188e+00,2.559207386876033219e+00
5.120777845382690430e+00,2.559058971292849982e+00
5.125781059265136719e+00,2.559682435951523338e+00
5.130776166915893555e+00,2.559332556644982937e+00
5.135781049728393555e+00,2.559476799902534516e+00
5.140778064727783203e+00,2.558677501520812747e+00
5.145813226699829102e+00,2.558440871052845900e+00
5.150777578353881836e+00,2.559167451759273071e+00
5.155956745147705078e+00,2.558703131521121499e+00
5.160355329513549805e+00,2.556072182187102193e+00
5.164353132247924805e+00,2.560522861543042872e+00
5.168352127075195312e+00,2.560711212242986257e+00
5.172351360321044922e+00,2.561396665739615663e+00
5.176350593566894531e+00,2.562052912956823469e+00
5.180350780487060547e+00,2.562327094355475232e+00
5.184349775314331055e+00,2.562724061337001480e+00
5.188355207443237305e+00,2.562297292029534823e+00
5.192351818084716797e+00,2.563045330410639089e+00
5.196349620819091797e+00,2.563835092048059927e+00
5.200348615646362305e+00,2.563956685537896796e+00
5.204349994659423828e+00,2.564544983451960469e+00
5.208349704742431641e+00,2.563895292746459553e+00
5.212347984313964844e+00,2.563324280181441317e+00
5.216348409652709961e+00,2.564277358565015597e+00
5.220348358154296875e+00,2.564713068570264376e+00
5.224348306655883789e+00,2.563842244606285625e+00
5.228348016738891602e+00,2.563928671351512811e+00
5.232343912124633789e+00,2.564500279963049856e+00
5.236346721649169922e+00,2.563616342975657325e+00
5.240348339080810547e+00,2.564080067167290089e+00
5.244344949722290039e+00,2.564276166471977980e+00
5.248345851898193359e+00,2.564347692054234962e+00
5.252346515655517578e+00,2.563289113436831634e+00
5.256515026092529297e+00,2.560830421546747893e+00
5.260769844055175781e+00,2.563531108323467755e+00
5.265768766403198242e+00,2.560025758746356850e+00
5.270768642425537109e+00,2.559494085251579953e+00
5.275781869888305664e+00,2.557751841277103644e+00
5.280768394470214844e+00,2.555954164976378173e+00
5.285768032073974609e+00,2.556135363118095860e+00
5.290765523910522461e+00,2.555901116836204245e+00
5.295774459838867188e+00,2.556816644289093610e+00
5.300824880599975586e+00,2.555785483811555459e+00
5.305782556533813477e+00,2.552382058189160752e+00
5.310764551162719727e+00,2.553367323084750673e+00
5.315774202346801758e+00,2.550708955610866191e+00
5.321100473403930664e+00,2.553327984014509333e+00
5.325746536254882812e+00,2.547920649995881526e+00
5.330729246139526367e+00,2.548777764889927688e+00
5.335744380950927734e+00,2.549221223499920974e+00
5.340734958648681641e+00,2.550578421423247200e+00
5.345729351043701172e+00,2.552398151445168573e+00
5.350727796554565430e+00,2.554055160767455313e+00
5.355758666992187500e+00,2.555561966367002391e+00
5.360471487045288086e+00,2.554602331471721222e+00
5.364306926727294922e+00,2.560499615728809353e+00
5.368305444717407227e+00,2.560810752011627223e+00
5.372304677963256836e+00,2.561374015971900953e+00
5.376311302185058594e+00,2.562651343661706882e+00
5.380306005477905273e+00,2.562394447612100556e+00
5.384322404861450195e+00,2.563271232041267389e+00
5.388308286666870117e+00,2.562870688780628292e+00
5.395827770233154297e+00,2.563710518325629018e+00
5.399801731109619141e+00,2.538599078488239957e+00
5.406632423400878906e+00,2.524941268556269325e+00
5.410464286804199219e+00,2.506530583683321822e+00
5.414336204528808594e+00,2.526528540435855508e+00
5.418303489685058594e+00,2.530678216299798056e+00
5.422325611114501953e+00,2.574647971945759117e+00
5.426325082778930664e+00,2.542019789459680101e+00
5.430323839187622070e+00,2.546690409981060998e+00
5.434321403503417969e+00,2.551884955392474730e+00
5.438302516937255859e+00,2.557070560106105894e+00
5.442304849624633789e+00,2.559904761303038789e+00
5.446300268173217773e+00,2.563290305529869251e+00
5.450300931930541992e+00,2.567361899299847927e+00
5.454321384429931641e+00,2.569508858860594991e+00
5.458394050598144531e+00,2.571655222374823246e+00
5.462293863296508789e+00,2.614481760797710663e+00
5.466376304626464844e+00,2.605094624173000195e+00
5.470296144485473633e+00,2.614947273128899852e+00
5.474292516708374023e+00,2.615531994763850676e+00
5.478297710418701172e+00,2.615688754998297227e+00
5.482299089431762695e+00,2.578822681763492053e+00
5.486298561096191406e+00,2.578931758276433950e+00
5.490298986434936523e+00,2.578774401995468590e+00
5.494297504425048828e+00,2.579743573635050691e+00
5.498297691345214844e+00,2.579948017591001896e+00
5.502298116683959961e+00,2.581103155744452149e+00
5.506298065185546875e+00,2.579934904567588116e+00
5.510294675827026367e+00,2.579424688747488315e+00
5.514291763305664062e+00,2.578922221532133019e+00
5.518294811248779297e+00,2.616840912919153439e+00
5.522294521331787109e+00,2.616149498957335950e+00
5.526294469833374023e+00,2.615214301969325916e+00
5.530293703079223633e+00,2.614234997538924077e+00
5.534293174743652344e+00,2.614326192656301728e+00
5.538292646408081055e+00,2.613397552179998584e+00
5.542292833328247070e+00,2.611963464255746104e+00
5.546292304992675781e+00,2.571545549815362541e+00
5.550293922424316406e+00,2.570997783064577824e+00
5.554291486740112305e+00,2.568457432801417362e+00
5.558323383331298828e+00,2.568452664429266896e+00
5.562750101089477539e+00,2.565568395324754114e+00
5.567776918411254883e+00,2.563067980178353800e+00
5.572745800018310547e+00,2.561771578999946009e+00
5.577746152877807617e+00,2.560055561072297259e+00
5.582744598388671875e+00,2.558838434080890956e+00
5.587774515151977539e+00,2.557182616851641832e+00
5.592744827270507812e+00,2.556551403588223970e+00
5.597743511199951172e+00,2.556822604754281691e+00
5.602741003036499023e+00,2.556600279402766240e+00
5.607770442962646484e+00,2.555017179848811715e+00
5.612740993499755859e+00,2.554837173800131644e+00
5.617741107940673828e+00,2.554122514024080637e+00
5.622740030288696289e+00,2.554664320309677272e+00
5.627775430679321289e+00,2.553946084254513416e+00
5.632740974426269531e+00,2.554229802397466109e+00
5.637739658355712891e+00,2.554151124256983429e+00
5.642737150192260742e+00,2.553794688438736138e+00
5.647768497467041016e+00,2.553994364022536878e+00
5.652738809585571289e+00,2.554388946817987893e+00
5.657737731933593750e+00,2.553837603788090327e+00
5.662315845489501953e+00,2.551622694924199131e+00
5.666313171386718750e+00,2.556441731028763265e+00
5.670312643051147461e+00,2.557091421734264181e+00
5.674312591552734375e+00,2.558307952679151676e+00
5.678311109542846680e+00,2.558682269892963212e+00
5.682311534881591797e+00,2.560291595493745298e+00
5.686311721801757812e+00,2.560686774335715121e+00
5.690310478210449219e+00,2.560894198524260368e+00
5.694310188293457031e+00,2.562591739009826064e+00
5.698309183120727539e+00,2.562197752260893857e+00
5.702308654785156250e+00,2.562949962967629780e+00
5.706309556961059570e+00,2.562567897149073737e+00
5.710309505462646484e+00,2.562439151101011170e+00
5.714307785034179688e+00,2.562579818079449900e+00
5.718308448791503906e+00,2.563178844830852121e+00
5.722307920455932617e+00,2.563343949716561987e+00
5.726307630538940430e+00,2.563539452974731070e+00
5.730307102203369141e+00,2.562923140874283412e+00
5.734307050704956055e+00,2.563800521349969053e+00
5.738306283950805664e+00,2.563689656697470731e+00
5.742305994033813477e+00,2.563981123445167931e+00
5.746305704116821289e+00,2.564200468564089341e+00
5.750306129455566406e+00,2.564106293214117649e+00
5.754306077957153320e+00,2.563526935997836098e+00
5.758424043655395508e+00,2.564398952054852465e+00
5.762462139129638672e+00,2.563127584830234618e+00
5.766730308532714844e+00,2.566317029752377188e+00
5.771757364273071289e+00,2.561528392020272271e+00
5.776727676391601562e+00,2.561018772246691277e+00
5.781725883483886719e+00,2.561057515270413809e+00
5.786724328994750977e+00,2.559467263158233585e+00
5.791750669479370117e+00,2.558316297330414990e+00
5.796727180480957031e+00,2.558390803145266013e+00
5.801723480224609375e+00,2.558496899425613869e+00
5.806722879409790039e+00,2.557653493601500294e+00
5.811748743057250977e+00,2.557192153595942763e+00
5.816723108291625977e+00,2.556473917540778906e+00
5.821723699569702148e+00,2.556687898241031043e+00
5.826721668243408203e+00,2.556764788241957298e+00
5.831746339797973633e+00,2.557179636619047791e+00
5.836865663528442383e+00,2.555054730779496630e+00
5.841726064682006836e+00,2.557415074993977022e+00
5.846721887588500977e+00,2.557208842898469392e+00
5.851751327514648438e+00,2.556284374747797905e+00
5.856723308563232422e+00,2.553774422857096660e+00
5.861826419830322266e+00,2.554943270080479500e+00
5.866297483444213867e+00,2.553420967271443409e+00
5.870296478271484375e+00,2.555701441252403505e+00
5.874299049377441406e+00,2.557931847325783714e+00
5.878295183181762695e+00,2.558731741754024291e+00
5.882295370101928711e+00,2.559358186645291688e+00
5.886294126510620117e+00,2.561446137600676742e+00
5.890295982360839844e+00,2.562370605751348229e+00
5.894293308258056641e+00,2.563494749485820456e+00
5.898292779922485352e+00,2.563682504139245033e+00
5.902293443679809570e+00,2.565651245790868451e+00
5.906362771987915039e+00,2.566752143711107159e+00
5.910425424575805664e+00,2.554251260072143204e+00
5.914415359497070312e+00,2.562817044593935556e+00
5.918591976165771484e+00,2.549202746057837921e+00
5.922408819198608398e+00,2.562561936683885655e+00
5.926295757293701172e+00,2.564730949965828621e+00
5.930294036865234375e+00,2.567230769065710128e+00
5.934295654296875000e+00,2.570295640265421788e+00
5.938290834426879883e+00,2.573613831235626925e+00
5.942289829254150391e+00,2.616076781282041352e+00
5.946291446685791016e+00,2.580008218289401523e+00
5.950291633605957031e+00,2.582323262968452493e+00
5.954289674758911133e+00,2.586103986037252778e+00
5.958290338516235352e+00,2.587296079074869137e+00
5.962554454803466797e+00,2.590276311668910036e+00
5.966762542724609375e+00,2.593523573103377000e+00
5.971742391586303711e+00,2.591101240050940557e+00
5.976712942123413086e+00,2.592791031931761747e+00
5.981713533401489258e+00,2.594834279398236188e+00
5.986712217330932617e+00,2.595695566617914007e+00
5.991738557815551758e+00,2.593939017526986301e+00
5.996710062026977539e+00,2.594923090329538606e+00
6.001712083816528320e+00,2.592890571700402713e+00
6.006711244583129883e+00,2.592532943789117805e+00
6.011738538742065430e+00,2.590991567491479852e+00
6.016710758209228516e+00,2.590483735857455283e+00
6.021710395812988281e+00,2.588022659781296309e+00
6.026709079742431641e+00,2.586790035580400993e+00
6.031711101531982422e+00,2.583568404146242781e+00
6.036708593368530273e+00,2.582884738789169798e+00
6.041706800460815430e+00,2.579515287818347158e+00
6.046705961227416992e+00,2.616677000126481190e+00
6.051709175109863281e+00,2.614162279863629479e+00
6.056712627410888672e+00,2.569003411412645654e+00
6.061840057373046875e+00,2.569973179098746563e+00
6.066497802734375000e+00,2.567510910929549972e+00
6.070280075073242188e+00,2.571684428654244847e+00
6.074280261993408203e+00,2.568295308148301537e+00
6.078279256820678711e+00,2.566687174640557068e+00
6.082279682159423828e+00,2.567200966739769719e+00
6.086278915405273438e+00,2.566798635339574197e+00
6.090276479721069336e+00,2.565838404397774219e+00
6.094279527664184570e+00,2.565926023236039022e+00
6.098277330398559570e+00,2.565526672068437541e+00
6.102278232574462891e+00,2.564460344846289708e+00
6.106277227401733398e+00,2.565691776954147407e+00
6.110274791717529297e+00,2.565359779043171251e+00
6.114276409149169922e+00,2.565593429278544058e+00
6.118274450302124023e+00,2.565545745557039403e+00
6.122274160385131836e+00,2.565797277187976455e+00
6.126278400421142578e+00,2.565625615790559699e+00
6.130273342132568359e+00,2.566919036736373450e+00
6.134275436401367188e+00,2.566391535567228210e+00
6.138272523880004883e+00,2.566899367201252780e+00
6.142275094985961914e+00,2.566784330223122801e+00
6.146273851394653320e+00,2.566299148356812942e+00
6.150272607803344727e+00,2.567950197213911601e+00
6.154273033142089844e+00,2.566939302318012928e+00
6.158273696899414062e+00,2.567162223716047187e+00
6.162380933761596680e+00,2.565792508815825990e+00
6.166429758071899414e+00,2.565232225088146301e+00
6.170719861984252930e+00,2.569587537001077671e+00
6.175699234008789062e+00,2.563056655294496444e+00
6.180694341659545898e+00,2.562871284827147100e+00
6.185696125030517578e+00,2.562851615292026430e+00
6.190714836120605469e+00,2.561579652020889775e+00
6.195698022842407227e+00,2.560036487583695397e+00
6.200692892074584961e+00,2.560236163167496137e+00
6.205693483352661133e+00,2.560123510375441391e+00
6.210713863372802734e+00,2.559848136883752012e+00
6.215695858001708984e+00,2.560178346655171744e+00
6.220691204071044922e+00,2.560189671539029099e+00
6.225691318511962891e+00,2.559370703622186660e+00
6.230711460113525391e+00,2.559994764327378824e+00
6.235696792602539062e+00,2.559511966647144199e+00
6.240689754486083984e+00,2.560206956888074536e+00
6.245689630508422852e+00,2.560389943169348648e+00
6.250709295272827148e+00,2.560327954331392597e+00
6.255693912506103516e+00,2.560444183402560192e+00
6.260689735412597656e+00,2.559826083162556110e+00
6.265839099884033203e+00,2.560513324798741941e+00
6.270267486572265625e+00,2.559081025014045885e+00
6.274264335632324219e+00,2.562291927610865550e+00
6.278260946273803711e+00,2.562637038545255486e+00
6.282262563705444336e+00,2.564798303222453946e+00
6.286262035369873047e+00,2.564505644381719129e+00
6.290261268615722656e+00,2.566568561383314240e+00
6.294263601303100586e+00,2.566700287663970848e+00
6.298260211944580078e+00,2.567649193721913470e+00
6.302260637283325195e+00,2.567926951399678082e+00
